Time (s),ECG Amplitude
0.0,1.810556687300208
0.0010002000400080016,1.5975137463330538
0.002000400080016003,1.6178275035859242
0.0030006001200240046,1.4856616863757397
0.004000800160032006,1.6655847342888985
0.005001000200040008,1.4900630445826826
0.006001200240048009,1.3987966285274596
0.007001400280056011,1.4862470290201961
0.008001600320064013,1.30662103843994
0.009001800360072015,1.5354456560463825
0.010002000400080016,1.0055353384856789
0.011002200440088018,1.5426968892208546
0.012002400480096018,1.4777815379480534
0.01300260052010402,1.827626600452273
0.014002800560112022,1.583782801194424
0.015003000600120024,1.288509416481371
0.016003200640128026,1.447600547280773
0.017003400680136026,1.2720357793554469
0.01800360072014403,1.0745484327550852
0.01900380076015203,1.1557300729276765
0.020004000800160033,1.4113049277420653
0.021004200840168033,1.2647262796488448
0.022004400880176037,1.2385576223236263
0.023004600920184037,1.40408448125204
0.024004800960192037,1.3471745874114682
0.02500500100020004,1.7491927181850193
0.02600520104020804,1.516973004547253
0.027005401080216044,1.654445268158101
0.028005601120224044,1.6430560823986609
0.029005801160232048,1.2544067551553755
0.030006001200240048,1.712183260074588
0.03100620124024805,1.9727393970415956
0.03200640128025605,1.6197990314993873
0.033006601320264055,1.6974666557607092
0.03400680136027205,1.4990205539426242
0.035007001400280055,1.5302498145646533
0.03600720144028806,1.7088480230375909
0.03700740148029606,1.1693308787631325
0.03800760152030406,1.3027925784823131
0.03900780156031206,1.8111537832793898
0.040008001600320066,1.7152870607719801
0.04100820164032806,1.9628241103739983
0.042008401680336066,1.6723400749000437
0.04300860172034407,1.8408032888594204
0.04400880176035207,1.9741265142554862
0.04500900180036007,1.9495858072427783
0.04600920184036807,1.7817627615659906
0.04700940188037608,1.9240706552270819
0.048009601920384073,1.3721837145436182
0.04900980196039208,1.8868843395227497
0.05001000200040008,1.4331602629640028
0.051010202040408084,1.816627137977579
0.05201040208041608,1.7908289995628608
0.053010602120424084,2.1536393726942125
0.05401080216043209,1.866119147588312
0.05501100220044009,1.8954218278852013
0.05601120224044809,2.2161448427663166
0.05701140228045609,2.041534726060447
0.058011602320464095,2.100287682945502
0.05901180236047209,2.154531200711317
0.060012002400480095,2.274982743975393
0.0610122024404881,1.8497277166898838
0.0620124024804961,2.314661065369378
0.0630126025205041,2.236973319491352
0.0640128025605121,2.2861039062740143
0.0650130026005201,2.2991421393182256
0.06601320264052811,2.093334756722806
0.06701340268053611,2.2609616868533875
0.0680136027205441,2.3792936376291984
0.0690138027605521,2.1365566564424645
0.07001400280056011,2.1755236395368214
0.07101420284056811,2.5758937602593
0.07201440288057612,2.56307221109008
0.07301460292058412,2.4102985745907968
0.07401480296059212,2.174828939934322
0.07501500300060011,2.592780810497022
0.07601520304060812,2.184951613923006
0.07701540308061612,2.2213169111707165
0.07801560312062412,2.225850447602381
0.07901580316063213,2.6234087950845457
0.08001600320064013,2.257480061628967
0.08101620324064814,2.2365465204160158
0.08201640328065612,2.5055195027894164
0.08301660332066413,2.1032388848289956
0.08401680336067213,2.5806817231197234
0.08501700340068014,2.196651255125407
0.08601720344068814,2.3317024184112496
0.08701740348069614,2.662869880355557
0.08801760352070415,2.847301396753983
0.08901780356071214,2.378676452584198
0.09001800360072014,2.2516082258524976
0.09101820364072814,2.1064179340337
0.09201840368073615,2.5850897642447896
0.09301860372074415,2.451365341724689
0.09401880376075215,2.269718816290877
0.09501900380076016,1.8758254993955503
0.09601920384076815,2.251895922906367
0.09701940388077615,2.33702627012084
0.09801960392078415,2.141780887692315
0.09901980396079216,2.491599007712175
0.10002000400080016,2.2137427358732538
0.10102020404080816,2.1426904553794737
0.10202040408081617,2.093469815269721
0.10302060412082417,1.8689105020392496
0.10402080416083216,2.3563737019390376
0.10502100420084017,2.252435518886851
0.10602120424084817,1.9898281747617874
0.10702140428085617,1.9140409022321456
0.10802160432086418,2.3725037294135616
0.10902180436087218,2.218315429564474
0.11002200440088018,1.7323852771030255
0.11102220444088817,1.767460714092699
0.11202240448089618,2.275011293317884
0.11302260452090418,1.829199708868903
0.11402280456091218,2.6043761974805526
0.11502300460092019,2.1333311802761963
0.11602320464092819,2.184841285890109
0.1170234046809362,2.275265802082468
0.11802360472094418,2.2505535011109226
0.11902380476095219,2.291709477261917
0.12002400480096019,2.4349774643538593
0.1210242048409682,2.0286787195205656
0.1220244048809762,2.053797322917176
0.1230246049209842,2.34578265021217
0.1240248049609922,2.424794425750088
0.1250250050010002,2.0334143942732092
0.1260252050410082,2.159850647099999
0.1270254050810162,2.413821956480193
0.1280256051210242,1.9637699270923188
0.1290258051610322,1.7976473863115099
0.1300260052010402,1.8518238399580047
0.13102620524104822,2.2178341683379506
0.13202640528105622,1.9410203025203627
0.13302660532106422,2.758714561761206
0.13402680536107223,3.010159464630245
0.13502700540108023,1.8455434605816474
0.1360272054410882,2.4298252731096155
0.1370274054810962,2.2985761844317665
0.1380276055211042,2.293173225731989
0.13902780556111222,2.565724993676903
0.14002800560112022,2.550362992200355
0.14102820564112822,2.004681026257835
0.14202840568113623,2.353284958494547
0.14302860572114423,2.5162746598277583
0.14402880576115223,2.277414363378909
0.14502900580116024,2.572848491337371
0.14602920584116824,2.928769277119775
0.14702940588117624,2.6921024218093006
0.14802960592118425,2.729478353648769
0.14902980596119225,2.609558809873609
0.15003000600120023,2.592053494987579
0.15103020604120823,2.859173264305526
0.15203040608121624,1.9640977964593893
0.15303060612122424,2.6646610490141165
0.15403080616123224,2.577198650643184
0.15503100620124025,2.535885492746761
0.15603120624124825,2.2420262150358665
0.15703140628125625,2.399664332069938
0.15803160632126426,2.64278603730496
0.15903180636127226,2.520774010256384
0.16003200640128026,2.752695271877019
0.16103220644128827,2.0898699244923686
0.16203240648129627,2.3940933786483005
0.16303260652130427,2.3299350376430525
0.16403280656131225,2.758879282016461
0.16503300660132025,2.897673349228756
0.16603320664132826,2.024450155647001
0.16703340668133626,2.3971131607450005
0.16803360672134426,2.473329598283841
0.16903380676135227,2.2857180943289004
0.17003400680136027,2.076693714659701
0.17103420684136827,2.0618668001810376
0.17203440688137628,2.607677436154793
0.17303460692138428,2.109882069767898
0.17403480696139229,2.6137403490363544
0.1750350070014003,2.235833092255583
0.1760352070414083,1.9997102644969214
0.1770354070814163,2.1653996213947897
0.17803560712142427,2.210478245421138
0.17903580716143228,2.3334656146051405
0.18003600720144028,2.2276487487679164
0.18103620724144828,2.1615427090050185
0.1820364072814563,1.9174001772876788
0.1830366073214643,2.231456892358703
0.1840368073614723,2.194415831225589
0.1850370074014803,2.4899717806769197
0.1860372074414883,2.22496342365954
0.1870374074814963,2.0828368434888405
0.1880376075215043,2.339954317553856
0.1890378075615123,2.083149829594826
0.19003800760152031,2.0668479201387235
0.19103820764152832,1.8813208136795145
0.1920384076815363,1.9586278606657614
0.1930386077215443,2.328552294094743
0.1940388077615523,1.9949591218381526
0.1950390078015603,2.042763319842529
0.1960392078415683,2.0784407340417395
0.1970394078815763,2.615145415347652
0.19803960792158432,2.17577356153
0.19903980796159232,2.0504966848368045
0.20004000800160032,2.0828624110490788
0.20104020804160833,2.005982246467126
0.20204040808161633,2.055465998298713
0.20304060812162433,1.901730359427278
0.20404080816163234,2.1931337528148234
0.20504100820164034,2.1454387403290056
0.20604120824164834,2.4194415422440594
0.20704140828165632,2.218883737438286
0.20804160832166432,1.8978774044644313
0.20904180836167233,2.278186358107756
0.21004200840168033,2.1320984707897446
0.21104220844168833,2.3102748076653077
0.21204240848169634,2.3753325441137663
0.21304260852170434,2.34212795353516
0.21404280856171234,2.253622678286657
0.21504300860172035,2.352521497246894
0.21604320864172835,1.868504079549262
0.21704340868173636,2.266147693125274
0.21804360872174436,2.4806383882426135
0.21904380876175236,1.7946849604241661
0.22004400880176037,2.062760850929004
0.22104420884176834,2.182453496813728
0.22204440888177635,2.34057181430526
0.22304460892178435,2.4566211079502875
0.22404480896179235,2.400690115395922
0.22504500900180036,2.372094365920337
0.22604520904180836,2.7352956346760724
0.22704540908181636,2.446948565963929
0.22804560912182437,2.5740184115372027
0.22904580916183237,1.9656524672803128
0.23004600920184037,1.9942891053574052
0.23104620924184838,2.1683844304703563
0.23204640928185638,2.2764445334832843
0.23304660932186438,2.5525167520141796
0.2340468093618724,2.1147872832633814
0.23504700940188036,2.5442675672707202
0.23604720944188837,2.073507768605375
0.23704740948189637,2.561075784744811
0.23804760952190437,2.4279514042992743
0.23904780956191238,1.8823218444448198
0.24004800960192038,2.636559775245911
0.24104820964192838,2.272444140076137
0.2420484096819364,2.151158324356523
0.2430486097219444,2.591654351339519
0.2440488097619524,2.1844878005827573
0.2450490098019604,2.4202280716713727
0.2460492098419684,2.46807378178812
0.2470494098819764,2.349678070347024
0.2480496099219844,2.061620002953562
0.24904980996199239,2.3019316003607986
0.2500500100020004,1.9076672411635727
0.2510502100420084,2.4992203607112473
0.2520504100820164,2.2891745250809605
0.2530506101220244,2.224371690355268
0.2540508101620324,2.5555633526841195
0.2550510102020404,2.1826849991928166
0.2560512102420484,2.224919270866045
0.2570514102820564,2.2159052502401537
0.2580516103220644,1.8082749509434137
0.2590518103620724,2.113398772464185
0.2600520104020804,2.0933499552859343
0.26105221044208843,1.8526948913221952
0.26205241048209643,2.033184424898482
0.26305261052210444,1.973916718462705
0.26405281056211244,2.087689387716124
0.26505301060212044,1.7929365300047777
0.26605321064212845,1.7997598544677689
0.26705341068213645,1.948802375911792
0.26805361072214445,2.026999573147484
0.26905381076215246,2.0099657961750794
0.27005401080216046,1.94642332805655
0.2710542108421684,2.097596066261705
0.2720544108821764,2.2448787264011605
0.2730546109221844,1.9520787008361753
0.2740548109621924,1.6358502460280304
0.2750550110022004,1.7795679016089798
0.2760552110422084,1.890414493686235
0.27705541108221643,2.0610782922356337
0.27805561112222443,2.0655673335955362
0.27905581116223244,2.1131617808843606
0.28005601120224044,1.833513075271671
0.28105621124224844,2.2165214153432244
0.28205641128225645,1.523815666591554
0.28305661132226445,1.7413799724694334
0.28405681136227245,2.0241065626493713
0.28505701140228046,1.6348820276634635
0.28605721144228846,1.4436760518726697
0.28705741148229647,1.8047336702843273
0.28805761152230447,1.9750535587115792
0.28905781156231247,1.9719521822345085
0.2900580116023205,1.9875557303762024
0.2910582116423285,1.824482010104641
0.2920584116823365,1.917059203172867
0.2930586117223445,1.7700116728700581
0.2940588117623525,1.8732418627189966
0.2950590118023605,2.2577500244961533
0.2960592118423685,2.1072791075375505
0.2970594118823765,1.995148142738694
0.2980596119223845,1.8271894528956165
0.29905981196239245,1.9596532128364268
0.30006001200240046,1.804380343082812
0.30106021204240846,2.15056063844851
0.30206041208241646,2.5460122866190456
0.30306061212242447,2.255306352937452
0.30406081216243247,2.2822794669417004
0.3050610122024405,2.3330682064921255
0.3060612122424485,2.377685031037423
0.3070614122824565,2.150750298354473
0.3080616123224645,2.395442070454743
0.3090618123624725,2.593341478653792
0.3100620124024805,2.625721928017605
0.3110622124424885,2.382885123974022
0.3120624124824965,2.9447782595686323
0.3130626125225045,3.0047149203942882
0.3140628125625125,2.9447913469822242
0.3150630126025205,3.0423647117798027
0.3160632126425285,3.049161414621677
0.3170634126825365,2.9637453850532
0.3180636127225445,2.851670583028551
0.3190638127625525,2.807200200093692
0.3200640128025605,3.5359970817163298
0.32106421284256853,3.4339924604030663
0.32206441288257653,3.6520079113126123
0.32306461292258454,3.13595519409039
0.32406481296259254,3.4299293330824603
0.32506501300260054,3.676796636628107
0.32606521304260855,3.7655289916677077
0.32706541308261655,3.681097519782459
0.3280656131226245,3.1392636284488997
0.3290658131626325,3.788592743370608
0.3300660132026405,3.777861969207467
0.3310662132426485,3.549938793124778
0.3320664132826565,3.8198513426957477
0.3330666133226645,4.130389824111387
0.3340668133626725,3.827028424655688
0.3350670134026805,3.9624881312446485
0.33606721344268853,3.9036158806490913
0.33706741348269653,3.933357866185194
0.33806761352270454,3.6896591381095747
0.33906781356271254,3.5671131973094847
0.34006801360272054,4.092669632605801
0.34106821364272855,3.664266094325253
0.34206841368273655,4.0996489770732545
0.34306861372274455,3.8203518306442956
0.34406881376275256,4.208184940340014
0.34506901380276056,4.132087887620141
0.34606921384276856,4.118690250890259
0.34706941388277657,4.295933981777076
0.34806961392278457,3.9331314372164488
0.3490698139627926,4.019868963347576
0.3500700140028006,4.503619492396114
0.3510702140428086,4.873130903376578
0.3520704140828166,4.473085973843469
0.3530706141228246,4.41096322119009
0.3540708141628326,4.265270778037205
0.3550710142028406,4.327385267245961
0.35607121424284854,4.5647526461774035
0.35707141428285655,4.446780741621109
0.35807161432286455,4.370093577309761
0.35907181436287255,4.783186050821234
0.36007201440288056,4.858335309576759
0.36107221444288856,5.053831943056906
0.36207241448289657,4.836722978429841
0.36307261452290457,4.778455989371781
0.3640728145629126,4.730378106531808
0.3650730146029206,4.8785332178828895
0.3660732146429286,5.039064621162274
0.3670734146829366,4.721933795339254
0.3680736147229446,4.8471086219851385
0.3690738147629526,4.82192074582787
0.3700740148029606,5.043689672006762
0.3710742148429686,5.163664620780334
0.3720744148829766,5.252117389754358
0.3730746149229846,4.8782125732051105
0.3740748149629926,4.918246974478231
0.3750750150030006,4.903949384145649
0.3760752150430086,5.227669255478476
0.3770754150830166,5.139323976432703
0.3780756151230246,5.3865583270081965
0.3790758151630326,4.778998982807477
0.38007601520304063,5.12323653296136
0.38107621524304863,5.025322105835709
0.38207641528305664,5.04164311892173
0.38307661532306464,4.822966018232863
0.3840768153630726,5.3475485831643885
0.3850770154030806,5.370433851414024
0.3860772154430886,5.215098783880079
0.3870774154830966,4.796660323932258
0.3880776155231046,4.8685670280150495
0.3890778155631126,5.237808245117717
0.3900780156031206,5.2866070507732585
0.3910782156431286,5.051773834001412
0.3920784156831366,4.921475094771526
0.3930786157231446,5.014741899320713
0.3940788157631526,5.037400349256442
0.3950790158031606,4.950602777934519
0.39607921584316863,5.150871118903495
0.39707941588317663,5.145536049357285
0.39807961592318464,4.9694309325106305
0.39907981596319264,5.0062827766397175
0.40008001600320064,4.727379236547115
0.40108021604320865,5.06765817694392
0.40208041608321665,5.148800099484172
0.40308061612322466,4.8926249775516695
0.40408081616323266,5.215939630283012
0.40508101620324066,5.0722437287620235
0.40608121624324867,5.102043344624922
0.40708141628325667,4.753958896741692
0.4080816163232647,5.022509099909056
0.4090818163632727,5.201522164114459
0.4100820164032807,4.805575179296829
0.4110822164432887,4.796162783621927
0.4120824164832967,4.515255218398941
0.41308261652330464,4.9719863787478875
0.41408281656331264,4.639512652596394
0.41508301660332064,4.44336421255867
0.41608321664332865,4.674884533829211
0.41708341668333665,4.641084112488982
0.41808361672334465,4.600868879194017
0.41908381676335266,4.351642506430873
0.42008401680336066,4.199255073409422
0.42108421684336866,5.101689733029652
0.42208441688337667,4.422549914859211
0.42308461692338467,4.07762920094791
0.4240848169633927,4.358599849317092
0.4250850170034007,4.370377353541666
0.4260852170434087,4.420606023446591
0.4270854170834167,4.3783937039693015
0.4280856171234247,4.2259161923499775
0.4290858171634327,3.766894265963912
0.4300860172034407,3.9484621948619707
0.4310862172434487,3.629285388491667
0.4320864172834567,4.030853045848368
0.4330866173234647,3.726020010480922
0.4340868173634727,3.9706049455450896
0.4350870174034807,3.821317730623864
0.4360872174434887,3.7136958664170696
0.4370874174834967,3.8667566219069935
0.4380876175235047,3.9349482809100724
0.43908781756351273,3.796183085710107
0.44008801760352073,3.804879472062813
0.4410882176435287,3.6931461466436017
0.4420884176835367,3.6209456078355977
0.4430886177235447,3.821618139857648
0.4440888177635527,3.8535915645463636
0.4450890178035607,3.7504076097077452
0.4460892178435687,3.7784075115562183
0.4470894178835767,4.000857030709788
0.4480896179235847,3.8048255104144304
0.4490898179635927,3.778191851942642
0.4500900180036007,3.7044136482485133
0.4510902180436087,3.70004166814263
0.4520904180836167,3.653602444624873
0.4530906181236247,3.8927314480267587
0.4540908181636327,3.667384563797871
0.45509101820364073,3.6947277168297785
0.45609121824364873,3.773068673451836
0.45709141828365674,3.4739245860165426
0.45809161832366474,3.6192564489798
0.45909181836367274,3.574059939048767
0.46009201840368075,3.6731903703969593
0.46109221844368875,3.7642957449482894
0.46209241848369675,3.2511530158379767
0.46309261852370476,3.8170397850450364
0.46409281856371276,3.3576297613410064
0.46509301860372076,3.8476502269797543
0.46609321864372877,3.9077107423978377
0.46709341868373677,3.2701164130898968
0.4680936187237448,3.178006570486649
0.4690938187637528,3.2063988277166344
0.4700940188037607,3.1205079142835697
0.47109421884376873,3.2340151527722125
0.47209441888377673,3.073278245091622
0.47309461892378474,3.257525441915722
0.47409481896379274,2.810906193466062
0.47509501900380074,3.1373089838403105
0.47609521904380875,2.995327986425955
0.47709541908381675,3.3987966427621448
0.47809561912382476,3.1760527764594912
0.47909581916383276,3.236773465528749
0.48009601920384076,2.776998443550827
0.48109621924384877,2.9542039424417545
0.48209641928385677,2.712025192559466
0.4830966193238648,2.8865156022360474
0.4840968193638728,2.76106097085462
0.4850970194038808,2.788947967729122
0.4860972194438888,3.1652806421683986
0.4870974194838968,2.7094316948217507
0.4880976195239048,2.912214687970951
0.4890978195639128,3.433638964790069
0.4900980196039208,3.2215617345827434
0.4910982196439288,2.856776770756744
0.4920984196839368,2.839968294447287
0.4930986197239448,2.8545839964228743
0.4940988197639528,3.043530313924449
0.4950990198039608,3.103575087958239
0.4960992198439688,3.003502399374242
0.4970994198839768,3.080588783353447
0.49809961992398477,2.838929909281687
0.4990998199639928,2.7973877041840285
0.5001000200040008,2.6636122881545408
0.5011002200440088,2.898694539447519
0.5021004200840168,2.7687809587272554
0.5031006201240248,2.849151828172429
0.5041008201640328,2.8098678582465566
0.5051010202040408,2.5265169169572603
0.5061012202440488,2.5156498521264807
0.5071014202840568,3.1067089939004795
0.5081016203240648,3.0272224321160315
0.5091018203640728,2.6557418674979
0.5101020204040808,2.8989772241985623
0.5111022204440888,2.68423131534578
0.5121024204840968,2.815810349936035
0.5131026205241048,2.7129061219142763
0.5141028205641128,3.045384767865151
0.5151030206041208,2.732505361263346
0.5161032206441288,2.644725228474388
0.5171034206841368,2.494819148048725
0.5181036207241448,2.530250344262745
0.5191038207641528,2.64496567719305
0.5201040208041608,3.024244659383379
0.5211042208441689,2.89569321184054
0.5221044208841769,2.608745276781742
0.5231046209241849,2.595363958808267
0.5241048209641929,2.9059964613771823
0.5251050210042009,2.3770700668076703
0.5261052210442089,2.3923074642749937
0.5271054210842169,2.952640191973923
0.5281056211242249,2.5036822048954694
0.5291058211642329,2.5759245273381706
0.5301060212042409,2.4889351918231806
0.5311062212442489,2.421551607248961
0.5321064212842569,2.4827505479947507
0.5331066213242649,2.385607755596325
0.5341068213642729,3.0466131695342082
0.5351070214042809,2.6243691289383126
0.5361072214442889,2.7417786451950503
0.5371074214842969,2.6650762427479693
0.5381076215243049,2.338868740481134
0.5391078215643129,2.5767876685395263
0.5401080216043209,2.536299662300272
0.5411082216443288,2.3631686935549365
0.5421084216843368,2.49292086956005
0.5431086217243448,2.5078556120338087
0.5441088217643528,2.419992690607026
0.5451090218043608,2.397391032722167
0.5461092218443688,2.4714458426876913
0.5471094218843768,2.2933437326289687
0.5481096219243848,2.5564978387390966
0.5491098219643928,2.7958195377558184
0.5501100220044008,2.8316768374954293
0.5511102220444088,2.8179428497617063
0.5521104220844169,2.733920999452466
0.5531106221244249,2.716786423288478
0.5541108221644329,2.6003766550865803
0.5551110222044409,2.8967796497826916
0.5561112222444489,2.5268632465468124
0.5571114222844569,3.0468854153238434
0.5581116223244649,2.548207865762761
0.5591118223644729,2.6794559106732327
0.5601120224044809,2.5531079241045167
0.5611122224444889,2.7123410492681677
0.5621124224844969,3.0424445808710128
0.5631126225245049,2.8462103994970174
0.5641128225645129,2.82001968604041
0.5651130226045209,2.6240835994730736
0.5661132226445289,2.7181385923267127
0.5671134226845369,2.909327135721248
0.5681136227245449,2.9641470170958164
0.5691138227645529,2.8313732961371274
0.5701140228045609,2.9018479052833746
0.5711142228445689,3.283979138609457
0.5721144228845769,2.677271005324506
0.5731146229245849,3.158523807113461
0.5741148229645929,3.142800728963572
0.5751150230046009,2.965330135953684
0.5761152230446089,2.47301849146682
0.5771154230846169,3.3073708534688215
0.5781156231246249,2.661445992000243
0.579115823164633,2.9916470954829086
0.580116023204641,2.78170208887029
0.581116223244649,3.0554127400758917
0.582116423284657,3.20124826689255
0.583116623324665,3.1249743240735017
0.584116823364673,3.0106546263834875
0.585117023404681,3.0889322751020662
0.586117223444689,2.8847784813869795
0.587117423484697,2.9468001031607014
0.588117623524705,3.0624013934863767
0.589117823564713,2.881353570603764
0.590118023604721,3.0886535671590734
0.591118223644729,3.2253878209284985
0.592118423684737,3.0937598645574163
0.593118623724745,2.5387808235200935
0.594118823764753,2.9985338742342047
0.595119023804761,3.0302337896400444
0.596119223844769,2.741159541150191
0.597119423884777,2.6604417533954674
0.5981196239247849,3.1323779736007547
0.5991198239647929,3.3387076502066417
0.6001200240048009,3.084364874769504
0.6011202240448089,3.071304204211576
0.6021204240848169,3.1959488570967425
0.6031206241248249,3.13856250828171
0.6041208241648329,3.0935393085690737
0.6051210242048409,2.7219231284935486
0.6061212242448489,2.760806620056088
0.6071214242848569,2.809883398241776
0.6081216243248649,3.2123968821616207
0.6091218243648729,3.1631116104971952
0.610122024404881,3.0290794374254184
0.611122224444889,3.1269210085224106
0.612122424484897,2.7379966661036828
0.613122624524905,3.1127051068970815
0.614122824564913,3.0322435706930144
0.615123024604921,3.22839919805819
0.616123224644929,3.0049172493119936
0.617123424684937,3.1057783870589275
0.618123624724945,3.149107595333185
0.619123824764953,3.421226414515682
0.620124024804961,2.8003139801134695
0.621124224844969,3.2096911874275977
0.622124424884977,3.273848300541056
0.623124624924985,3.3855014157761705
0.624124824964993,2.924148887784677
0.625125025005001,3.0885350794635076
0.626125225045009,2.8048532908601755
0.627125425085017,3.3509158485603305
0.628125625125025,3.098735908040703
0.629125825165033,3.2464304985141403
0.630126025205041,3.473306040891693
0.631126225245049,3.2586883337878687
0.632126425285057,2.83723645309434
0.633126625325065,3.174115191832896
0.634126825365073,2.9849234751632845
0.635127025405081,3.493596744530062
0.636127225445089,3.111759886252869
0.637127425485097,3.1401918060037053
0.638127625525105,3.099732106028362
0.639127825565113,3.2066253507408655
0.640128025605121,3.0767877910048926
0.6411282256451291,2.8013748821750513
0.6421284256851371,3.008294510460678
0.6431286257251451,3.0672217958300347
0.6441288257651531,3.134918697559683
0.6451290258051611,3.0191293359949722
0.6461292258451691,3.124136949126925
0.6471294258851771,3.459009714996109
0.6481296259251851,3.3503075094098307
0.6491298259651931,3.0597309928887695
0.6501300260052011,3.17720683678557
0.6511302260452091,2.924131610710371
0.6521304260852171,3.199411796340628
0.6531306261252251,3.15950190640921
0.6541308261652331,3.2762548669858043
0.655131026205241,3.013440071443491
0.656131226245249,2.6902810241684625
0.657131426285257,2.808183190397785
0.658131626325265,3.1520113880477103
0.659131826365273,3.0848839149292955
0.660132026405281,3.085656252090676
0.661132226445289,3.119705313122299
0.662132426485297,3.266655832224799
0.663132626525305,3.1812978991703993
0.664132826565313,2.7966542096318445
0.665133026605321,3.4713907243049187
0.666133226645329,2.7769118464689164
0.667133426685337,3.4441522962814917
0.668133626725345,3.1358581907350853
0.669133826765353,3.019887889287558
0.670134026805361,3.4206683668605002
0.671134226845369,3.170639101429661
0.6721344268853771,3.2814897053855323
0.6731346269253851,3.3897699699440382
0.6741348269653931,2.8438723418898615
0.6751350270054011,3.2289926685415535
0.6761352270454091,3.326643649977858
0.6771354270854171,2.7211634240694793
0.6781356271254251,3.1443474524198565
0.6791358271654331,3.28844948266562
0.6801360272054411,3.336443099975771
0.6811362272454491,3.0036760280977095
0.6821364272854571,3.2868059407250287
0.6831366273254651,3.0139057036302135
0.6841368273654731,3.1451968829404224
0.6851370274054811,3.3292424500982176
0.6861372274454891,3.84003973499185
0.6871374274854971,3.3029312059759377
0.6881376275255051,3.2580068177502914
0.6891378275655131,3.252005494700065
0.6901380276055211,3.5371524857391083
0.6911382276455291,3.2343749447127625
0.6921384276855371,3.1170075279422442
0.6931386277255451,3.4751620509838728
0.6941388277655531,3.6323493160491105
0.6951390278055611,3.374580483617315
0.6961392278455691,3.2223499055769076
0.6971394278855771,3.803686621560469
0.6981396279255851,3.54761828310758
0.6991398279655932,3.253037442479903
0.7001400280056012,3.4009894193841
0.7011402280456092,3.2490801682718713
0.7021404280856172,3.0171661287310454
0.7031406281256252,3.351506778072894
0.7041408281656332,3.3607353774685356
0.7051410282056412,3.169447027330377
0.7061412282456492,2.8289189369929626
0.7071414282856572,3.596919715902008
0.7081416283256652,3.562127809552285
0.7091418283656732,3.606134132448492
0.7101420284056812,3.3178111039388143
0.7111422284456892,3.117912398518316
0.7121424284856971,3.7125758664434847
0.7131426285257051,3.1229063419925556
0.7141428285657131,3.318418147476919
0.7151430286057211,3.0237536682083532
0.7161432286457291,3.1849087010977977
0.7171434286857371,3.097140165915514
0.7181436287257451,3.168832032172197
0.7191438287657531,2.8305737534215334
0.7201440288057611,2.9940337263405565
0.7211442288457691,3.119464885716452
0.7221444288857771,3.4599798288934527
0.7231446289257851,2.8959081923244185
0.7241448289657931,2.9910000719708387
0.7251450290058011,2.9338863035552794
0.7261452290458091,3.2674761041659552
0.7271454290858171,3.026042917603544
0.7281456291258251,3.110716741877039
0.7291458291658331,3.515167879221687
0.7301460292058412,2.908303208474273
0.7311462292458492,3.2237809980177237
0.7321464292858572,3.0121446955226725
0.7331466293258652,3.0699117698078795
0.7341468293658732,2.8945582855514513
0.7351470294058812,2.825977972669868
0.7361472294458892,2.9562635648744657
0.7371474294858972,3.0090159844527284
0.7381476295259052,2.689408068149844
0.7391478295659132,2.7059405437473805
0.7401480296059212,2.698025374215741
0.7411482296459292,2.8985372346203646
0.7421484296859372,2.998814315566661
0.7431486297259452,2.872467708396483
0.7441488297659532,2.4310589992838003
0.7451490298059612,2.747725760549275
0.7461492298459692,2.7964245667614547
0.7471494298859772,2.6108869326047137
0.7481496299259852,2.490442016802888
0.7491498299659932,2.3161484745078638
0.7501500300060012,2.3877784099674373
0.7511502300460092,2.4551307442809565
0.7521504300860172,2.5962657335792194
0.7531506301260252,1.9679639013150587
0.7541508301660332,2.074685603145679
0.7551510302060412,2.548711086259316
0.7561512302460492,2.1664568386190015
0.7571514302860572,2.302302782762462
0.7581516303260653,1.802650974884645
0.7591518303660733,1.9901998445285962
0.7601520304060813,2.0489535613029464
0.7611522304460893,1.913186101326727
0.7621524304860973,2.1611473309404268
0.7631526305261053,1.5732945408129777
0.7641528305661133,2.39253581791871
0.7651530306061213,2.0145554153957064
0.7661532306461293,2.0578145741101976
0.7671534306861373,2.188714404387701
0.7681536307261452,2.4787003236949645
0.7691538307661532,1.8287568182384464
0.7701540308061612,2.0615402467128563
0.7711542308461692,2.0365132387584635
0.7721544308861772,1.6800902758523493
0.7731546309261852,2.0956895081915334
0.7741548309661932,1.8945720644175117
0.7751550310062012,1.988444615540691
0.7761552310462092,2.276961984334394
0.7771554310862172,1.65691682154957
0.7781556311262252,1.837788464857296
0.7791558311662332,2.0613028915924647
0.7801560312062412,1.8054023001406692
0.7811562312462492,1.8902788728438527
0.7821564312862572,1.7408628986661083
0.7831566313262652,1.7853724228219974
0.7841568313662732,2.0397403202742854
0.7851570314062812,1.4789747239403643
0.7861572314462892,1.5483048521024485
0.7871574314862972,1.6561647758950087
0.7881576315263052,1.6598660452628877
0.7891578315663133,1.851766649991502
0.7901580316063213,1.7620019070730684
0.7911582316463293,1.8529859852428876
0.7921584316863373,1.5586764540534435
0.7931586317263453,1.8367037253063407
0.7941588317663533,1.8487496771720537
0.7951590318063613,1.963803482683344
0.7961592318463693,1.8024425694345145
0.7971594318863773,1.8355807352264426
0.7981596319263853,2.227780967830224
0.7991598319663933,1.509105884903271
0.8001600320064013,1.4158840441861031
0.8011602320464093,1.557960107653466
0.8021604320864173,1.339431765624323
0.8031606321264253,1.6555235800191745
0.8041608321664333,1.750547933274175
0.8051610322064413,1.7463708107497153
0.8061612322464493,1.6308727380101173
0.8071614322864573,1.6116843100123206
0.8081616323264653,1.621214198070611
0.8091618323664733,1.185842994617403
0.8101620324064813,1.6453589886745128
0.8111622324464893,1.9263982288313835
0.8121624324864973,1.6667412370733754
0.8131626325265053,1.8471115745761186
0.8141628325665133,1.6611708296664482
0.8151630326065213,1.747107486188317
0.8161632326465293,0.9889155793473053
0.8171634326865373,1.6779915247087407
0.8181636327265454,2.191703660753794
0.8191638327665534,1.7923873127052279
0.8201640328065614,2.406096030235274
0.8211642328465694,2.0781013766657885
0.8221644328865774,2.015992781546349
0.8231646329265854,2.123181364453291
0.8241648329665934,1.6107741070509358
0.8251650330066013,2.19418717827736
0.8261652330466093,2.3448962467453156
0.8271654330866173,2.197980351326696
0.8281656331266253,1.972576376862999
0.8291658331666333,2.0455798339358817
0.8301660332066413,2.190358310595133
0.8311662332466493,2.037735348973001
0.8321664332866573,2.4309309995228916
0.8331666333266653,2.0086489451353255
0.8341668333666733,1.9746043122650057
0.8351670334066813,2.29588518018702
0.8361672334466893,2.9556496658413556
0.8371674334866973,2.446991497686299
0.8381676335267053,2.3843947608373575
0.8391678335667133,2.4546476369754386
0.8401680336067213,2.329887176522981
0.8411682336467293,2.2330607182159428
0.8421684336867373,2.5449322922839563
0.8431686337267453,2.3030605993760553
0.8441688337667533,2.2116535263504025
0.8451690338067613,2.2233155616187696
0.8461692338467693,2.2007542235887305
0.8471694338867773,2.2335739918519337
0.8481696339267853,1.9858058017463858
0.8491698339667934,2.1184572817734884
0.8501700340068014,2.115726530198636
0.8511702340468094,2.67508290248775
0.8521704340868174,2.079646614295566
0.8531706341268254,2.3549131998585238
0.8541708341668334,1.6637910597066838
0.8551710342068414,1.9464713134548528
0.8561712342468494,2.115924987971557
0.8571714342868574,2.1850284390833257
0.8581716343268654,2.056487550580289
0.8591718343668734,2.3112517107045214
0.8601720344068814,1.8126837512495415
0.8611722344468894,1.8916101004568087
0.8621724344868974,1.9340424196226795
0.8631726345269054,1.7584422294057775
0.8641728345669134,1.347760924959549
0.8651730346069214,2.402255377544833
0.8661732346469294,1.5485123399272582
0.8671734346869374,1.9643321035390229
0.8681736347269454,1.8794812896913344
0.8691738347669534,2.01334259067216
0.8701740348069614,1.872964413352153
0.8711742348469694,1.799034062682415
0.8721744348869774,1.599889010756517
0.8731746349269854,1.7226072872105953
0.8741748349669934,1.666197474433046
0.8751750350070014,1.5888666503025721
0.8761752350470094,2.0758245239057036
0.8771754350870175,1.7473287700927498
0.8781756351270255,2.034335403435936
0.8791758351670335,1.7643721705817985
0.8801760352070415,1.9101544554530916
0.8811762352470495,1.5605711069009751
0.8821764352870574,1.5877201318170122
0.8831766353270654,1.6357127277767833
0.8841768353670734,2.112597677900172
0.8851770354070814,1.7418232322930078
0.8861772354470894,1.699674905387612
0.8871774354870974,1.4538758593456205
0.8881776355271054,1.535294828571653
0.8891778355671134,1.4783117357462034
0.8901780356071214,2.1126756653562406
0.8911782356471294,1.4112617543664667
0.8921784356871374,2.008284065256721
0.8931786357271454,1.7953870699643935
0.8941788357671534,1.6449919421452524
0.8951790358071614,1.6326993922817343
0.8961792358471694,1.9058947975555265
0.8971794358871774,1.7984855161540443
0.8981796359271854,1.2306381730377702
0.8991798359671934,2.0342718789518646
0.9001800360072014,1.7701693968962908
0.9011802360472094,1.9313056952549124
0.9021804360872174,1.833716387902675
0.9031806361272254,1.757251634545152
0.9041808361672334,1.713437129937155
0.9051810362072414,1.7859384428928082
0.9061812362472494,1.8665529455607193
0.9071814362872574,1.9122499858514823
0.9081816363272655,2.223207419670191
0.9091818363672735,2.0378828558593747
0.9101820364072815,1.7851966201475742
0.9111822364472895,1.931331382989313
0.9121824364872975,1.8704852804701386
0.9131826365273055,2.2442041968420634
0.9141828365673135,2.177314830629957
0.9151830366073215,2.145327035220071
0.9161832366473295,2.090951258351505
0.9171834366873375,2.1433111913374963
0.9181836367273455,1.512942459785035
0.9191838367673535,1.8020213479316514
0.9201840368073615,2.164502694341799
0.9211842368473695,1.8069794571301585
0.9221844368873775,2.0046736381345673
0.9231846369273855,2.1777761958081685
0.9241848369673935,2.512572740071404
0.9251850370074015,2.002170948431325
0.9261852370474095,2.1624781313909467
0.9271854370874175,1.9483667061558625
0.9281856371274255,2.2678914716295875
0.9291858371674335,2.2882094245804905
0.9301860372074415,2.1788476409150532
0.9311862372474495,2.540251745252747
0.9321864372874575,1.998883470342252
0.9331866373274655,1.9249145424466034
0.9341868373674735,2.3468697483823373
0.9351870374074815,1.9403436741081468
0.9361872374474896,2.3237399147835305
0.9371874374874976,2.088676020920697
0.9381876375275056,2.245620790021406
0.9391878375675135,2.4033650988247826
0.9401880376075215,2.2891950776683974
0.9411882376475295,2.093333041721052
0.9421884376875375,2.6949695088229237
0.9431886377275455,2.147181085148495
0.9441888377675535,2.4072193197686094
0.9451890378075615,2.3991484976134463
0.9461892378475695,2.0670861135247605
0.9471894378875775,2.506860421780861
0.9481896379275855,2.2830607397618814
0.9491898379675935,2.7737044244908082
0.9501900380076015,2.1470070233595218
0.9511902380476095,2.5820196557475708
0.9521904380876175,2.3340768933283838
0.9531906381276255,2.4251103536494734
0.9541908381676335,2.5314831830753284
0.9551910382076415,2.234293004362796
0.9561912382476495,2.299368648039782
0.9571914382876575,2.248651253148135
0.9581916383276655,2.3752335954260735
0.9591918383676735,2.3493832608744136
0.9601920384076815,2.3651137483215674
0.9611922384476895,2.2823352635941543
0.9621924384876975,2.0784638153095476
0.9631926385277055,2.160399503204116
0.9641928385677135,2.700732476017296
0.9651930386077215,2.542021329060566
0.9661932386477295,2.1616494287505077
0.9671934386877376,2.3019903011688
0.9681936387277456,2.0399269467845995
0.9691938387677536,2.526503781306287
0.9701940388077616,1.9746638798010567
0.9711942388477696,2.5996693314074997
0.9721944388877776,2.5024991925733806
0.9731946389277856,2.489156196273961
0.9741948389677936,1.945330310629509
0.9751950390078016,2.287803028865006
0.9761952390478096,2.286722593177204
0.9771954390878176,2.2636918357848606
0.9781956391278256,2.2790829756789392
0.9791958391678336,2.486613181131761
0.9801960392078416,2.2061639753676316
0.9811962392478496,2.14189617648133
0.9821964392878576,2.2173638419084107
0.9831966393278656,2.318325788111317
0.9841968393678736,2.271773263809116
0.9851970394078816,2.388173825807044
0.9861972394478896,2.411606588985633
0.9871974394878976,2.2203464584518255
0.9881976395279056,2.381888600231611
0.9891978395679136,2.2705955134462927
0.9901980396079216,2.2445198215439444
0.9911982396479296,2.3420566366720146
0.9921984396879376,2.5218122092598936
0.9931986397279456,2.427259404689587
0.9941988397679536,2.275098323188768
0.9951990398079616,2.5283281590855995
0.9961992398479695,2.296596560669662
0.9971994398879775,1.948271691439921
0.9981996399279855,2.0618304960125218
0.9991998399679936,1.9875767645726126
1.0002000400080016,2.1820517431514443
1.0012002400480096,1.9288692902969249
1.0022004400880176,1.724792728463523
1.0032006401280256,1.9269440611270618
1.0042008401680336,2.0357452128625804
1.0052010402080416,2.339708277740767
1.0062012402480496,2.5221655228193915
1.0072014402880576,2.119410429363231
1.0082016403280656,1.9544730278116462
1.0092018403680736,2.0614693247655183
1.0102020404080816,1.9486992276563293
1.0112022404480896,2.368186340169855
1.0122024404880976,1.8865709095133256
1.0132026405281056,2.166090063830977
1.0142028405681136,1.942955535047673
1.0152030406081216,1.6550014473473618
1.0162032406481296,2.0376862746129953
1.0172034406881376,1.6519184580418342
1.0182036407281456,1.6738240291028512
1.0192038407681536,1.647637837497997
1.0202040408081616,1.4479791729302767
1.0212042408481696,1.5506736961962753
1.0222044408881776,1.6202168184702141
1.0232046409281856,1.4800028641145042
1.0242048409681936,1.6576928589621915
1.0252050410082016,1.4091596830902584
1.0262052410482096,1.3599864589450177
1.0272054410882177,1.645269979087473
1.0282056411282257,1.506692888696069
1.0292058411682337,1.4687759525843855
1.0302060412082417,1.2580286879034874
1.0312062412482497,1.1789093400501174
1.0322064412882577,1.6052109509309251
1.0332066413282657,1.435108005086065
1.0342068413682737,1.5251135985986255
1.0352070414082817,1.6858921684820256
1.0362072414482897,1.1041039251305207
1.0372074414882977,1.512969145742434
1.0382076415283057,1.4079608841394728
1.0392078415683137,1.5780987283651677
1.0402080416083217,1.616682420547518
1.0412082416483297,1.410115037572525
1.0422084416883377,0.8174626444278152
1.0432086417283457,1.017181381725987
1.0442088417683537,1.6995398459695519
1.0452090418083617,1.6656528643203727
1.0462092418483697,1.6693856565364744
1.0472094418883777,1.2080576024266758
1.0482096419283857,1.1972192204039278
1.0492098419683937,1.5382336904733023
1.0502100420084017,1.6480107451927284
1.0512102420484097,1.3103961817252934
1.0522104420884177,1.8537294986630102
1.0532106421284257,1.3333040364279187
1.0542108421684337,1.2936494986914377
1.0552110422084418,1.532371769251563
1.0562112422484498,1.4605422124314396
1.0572114422884578,1.4230248020744765
1.0582116423284658,1.5518447418769292
1.0592118423684738,1.170360486652244
1.0602120424084818,1.6452057099401443
1.0612122424484898,1.4600285477194805
1.0622124424884978,1.502013815624405
1.0632126425285058,1.5090331682782334
1.0642128425685138,1.6073834915684828
1.0652130426085218,1.3144363367111183
1.0662132426485298,1.69764044033781
1.0672134426885378,1.768154204938756
1.0682136427285458,1.6931448505592301
1.0692138427685538,1.795419409998526
1.0702140428085618,1.7237762262648284
1.0712142428485698,1.765853670266215
1.0722144428885778,1.6957040612064471
1.0732146429285858,1.8339158113358607
1.0742148429685938,1.8745208648864573
1.0752150430086018,2.1238513779586548
1.0762152430486098,1.3902262543982946
1.0772154430886178,1.7963980138988522
1.0782156431286258,1.6460533531239736
1.0792158431686338,1.6460622999391008
1.0802160432086418,1.8810454042650742
1.0812162432486496,1.9400588466562165
1.0822164432886576,1.8992815544342303
1.0832166433286656,2.001568584178252
1.0842168433686736,2.099289356164994
1.0852170434086816,1.863264040710766
1.0862172434486896,1.8530023101874755
1.0872174434886976,1.8206997827039997
1.0882176435287056,1.8336777027839946
1.0892178435687137,2.251018530150576
1.0902180436087217,2.0929860628649495
1.0912182436487297,2.2773569230057813
1.0922184436887377,1.943975903406023
1.0932186437287457,2.3909528335728716
1.0942188437687537,1.852030061984633
1.0952190438087617,2.274849593181029
1.0962192438487697,2.176832700147335
1.0972194438887777,2.1513400346328155
1.0982196439287857,2.369746182374894
1.0992198439687937,1.9007078477337829
1.1002200440088017,2.2735631122554296
1.1012202440488097,2.539401904530855
1.1022204440888177,2.128280600057121
1.1032206441288257,1.9715095013237085
1.1042208441688337,2.1121223937905946
1.1052210442088417,2.8894665438449074
1.1062212442488497,2.1418579743234085
1.1072214442888577,2.496412560583625
1.1082216443288657,2.1537512976709503
1.1092218443688737,2.4294918434183272
1.1102220444088817,2.510019929591967
1.1112222444488897,2.6981365861773448
1.1122224444888977,2.6982768115144196
1.1132226445289057,2.6789114373593175
1.1142228445689137,2.7842853300123096
1.1152230446089217,2.336713522472167
1.1162232446489297,2.8971038326718275
1.1172234446889378,2.0531369526980314
1.1182236447289458,2.437422516000261
1.1192238447689538,2.1775147210222134
1.1202240448089618,3.0292959656291587
1.1212242448489698,2.5602288399109705
1.1222244448889778,2.851029276526501
1.1232246449289858,2.9212607593536823
1.1242248449689938,2.591715518466591
1.1252250450090018,2.8976160769022123
1.1262252450490098,2.7791083029408195
1.1272254450890178,3.2120873391272617
1.1282256451290258,3.131518651325641
1.1292258451690338,3.319484979218106
1.1302260452090418,3.2055491322236898
1.1312262452490498,3.2750375238095732
1.1322264452890578,3.3808210351160306
1.1332266453290658,3.3613623762048634
1.1342268453690738,3.1673937922829483
1.1352270454090818,3.7076635166213516
1.1362272454490898,3.3695224761938385
1.1372274454890978,3.4816877812235214
1.1382276455291058,3.59553911786765
1.1392278455691138,3.313400545717297
1.1402280456091218,3.6526236720600918
1.1412282456491298,3.727870472425059
1.1422284456891378,3.7436155264473987
1.1432286457291458,3.904850726619102
1.1442288457691538,3.8018385794434533
1.1452290458091618,4.171089426107876
1.1462292458491699,4.139642894594107
1.1472294458891779,4.225228226156437
1.1482296459291859,4.028954096203036
1.1492298459691939,4.335676390177522
1.1502300460092019,4.114936942371236
1.1512302460492099,4.477566989701709
1.1522304460892179,4.398920974582569
1.1532306461292259,4.707032715339115
1.1542308461692339,4.638046023537292
1.1552310462092419,4.835614708319705
1.1562312462492499,4.613846063283346
1.157231446289258,4.41851175055602
1.158231646329266,4.956024782043175
1.159231846369274,4.747303846544319
1.160232046409282,4.634137863021484
1.16123224644929,4.821726792130831
1.162232446489298,4.870321190559161
1.163232646529306,4.809557222652291
1.164232846569314,5.187760102942915
1.165233046609322,5.056017727059836
1.16623324664933,5.088587483173583
1.167233446689338,4.720616473281605
1.168233646729346,5.110444868740713
1.169233846769354,5.240354032801214
1.170234046809362,5.282566597122904
1.17123424684937,5.293907625674204
1.172234446889378,5.085511090615789
1.173234646929386,5.133145523141573
1.174234846969394,5.372503618899811
1.175235047009402,5.043053450957087
1.17623524704941,5.278531935829367
1.177235447089418,5.162971854674052
1.178235647129426,5.472826445331685
1.179235847169434,5.094442476066098
1.180236047209442,5.594922770044747
1.18123624724945,5.827812595472567
1.182236447289458,5.237867308270224
1.183236647329466,5.766664987490311
1.184236847369474,5.689780630816829
1.185237047409482,5.714353472456593
1.18623724744949,5.64083772177036
1.187237447489498,5.862992524813607
1.188237647529506,5.833315813229067
1.189237847569514,6.145517810559575
1.190238047609522,5.801973833064808
1.19123824764953,6.156809786508175
1.192238447689538,5.904571333055046
1.193238647729546,5.818791577685119
1.194238847769554,5.726058496578015
1.1952390478095618,6.330439310915847
1.1962392478495698,5.6143615239255595
1.1972394478895778,5.982271087824358
1.1982396479295858,5.977926356838081
1.1992398479695938,5.615798245854069
1.2002400480096018,5.932342642346419
1.2012402480496098,5.583357760220226
1.2022404480896178,5.880637552269444
1.2032406481296258,5.617080737908423
1.2042408481696338,5.769066580342705
1.2052410482096418,5.850013321746693
1.2062412482496498,5.87070333337209
1.2072414482896578,5.5112699645032635
1.2082416483296659,5.487339696668703
1.2092418483696739,5.962192588758642
1.2102420484096819,5.926882725950039
1.2112422484496899,6.138093216338998
1.2122424484896979,5.671662771090187
1.2132426485297059,6.065129422808985
1.2142428485697139,5.56301308425952
1.2152430486097219,5.747894341157184
1.2162432486497299,5.828964771271731
1.2172434486897379,5.5975023839597355
1.2182436487297459,5.210198444474917
1.219243848769754,5.3435562015647236
1.220244048809762,5.472676902106998
1.22124424884977,5.581757984673904
1.222244448889778,5.247071097215182
1.223244648929786,5.088961762638729
1.224244848969794,5.203578000024247
1.225245049009802,5.293628425174605
1.22624524904981,5.235471179278603
1.227245449089818,4.894619150895768
1.228245649129826,4.721295178988886
1.229245849169834,4.635702631131574
1.230246049209842,4.884358281557132
1.23124624924985,5.018121481235653
1.232246449289858,5.272183506187676
1.233246649329866,4.630129248389933
1.234246849369874,4.768516075318036
1.235247049409882,4.597702865058996
1.23624724944989,4.575075708113376
1.237247449489898,4.323193291529339
1.238247649529906,4.719932065775591
1.239247849569914,4.216029746123543
1.240248049609922,4.203933512775149
1.24124824964993,4.3693039893474905
1.242248449689938,4.255757062100874
1.243248649729946,3.9921142100915987
1.244248849769954,3.786724838684444
1.245249049809962,4.273017029803753
1.24624924984997,3.807200071994796
1.247249449889978,3.56671671291327
1.248249649929986,3.7571366858842143
1.249249849969994,3.690441310179131
1.250250050010002,3.5095290308199396
1.25125025005001,3.6619327444317555
1.252250450090018,3.5685614940083803
1.253250650130026,3.2345040404015615
1.254250850170034,3.39480217052643
1.255251050210042,4.027531447112169
1.25625125025005,3.345246295329694
1.257251450290058,3.4420589609278855
1.258251650330066,3.1396013925252895
1.259251850370074,3.1738801510952803
1.260252050410082,3.15200144651901
1.26125225045009,3.1335502456699307
1.262252450490098,3.179562826584646
1.263252650530106,3.4878539190767586
1.264252850570114,3.04365214603589
1.265253050610122,2.8038192136257227
1.26625325065013,2.76526467414741
1.267253450690138,2.6291404154601388
1.268253650730146,3.0717735559709713
1.269253850770154,2.8826632724804346
1.270254050810162,3.0433383569749775
1.27125425085017,2.9769477771417896
1.272254450890178,2.6574779337935084
1.273254650930186,2.5264452261591424
1.274254850970194,2.959958364314201
1.275255051010202,2.3590315406229885
1.27625525105021,2.694428920328134
1.277255451090218,3.1856301386311805
1.278255651130226,2.448372448770404
1.279255851170234,2.6202461538255606
1.280256051210242,2.4039820622712695
1.2812562512502501,2.9283226570139282
1.2822564512902581,2.688821239367771
1.2832566513302661,3.0950876267039975
1.2842568513702741,2.477672576642372
1.2852570514102821,2.2989755784033976
1.2862572514502901,2.603393229902885
1.2872574514902981,2.9762912501669776
1.2882576515303061,2.3547726216484777
1.2892578515703141,2.474764841266413
1.2902580516103221,2.425843151932999
1.2912582516503301,2.2734585908590343
1.2922584516903382,2.580628981792859
1.2932586517303462,1.984196680164332
1.2942588517703542,2.2591791811905773
1.2952590518103622,2.5016619574242314
1.2962592518503702,2.589281845788179
1.2972594518903782,2.1778588850452447
1.2982596519303862,2.6063826012050426
1.2992598519703942,2.170126590445289
1.3002600520104022,2.355116999064133
1.3012602520504102,1.9316321008654649
1.3022604520904182,2.249609028557453
1.3032606521304262,2.2683085720138165
1.3042608521704342,2.485263227140437
1.3052610522104422,2.5593359153329285
1.3062612522504502,2.408234417556188
1.3072614522904582,2.1835655700443457
1.3082616523304662,2.3291929813937577
1.309261852370474,2.239521784345878
1.310262052410482,2.5647174738047744
1.31126225245049,2.1691659768655667
1.312262452490498,2.357093048584641
1.313262652530506,2.320387034360224
1.314262852570514,2.339750181063334
1.315263052610522,2.201858631017773
1.31626325265053,2.282957300974602
1.317263452690538,2.4270314641927166
1.318263652730546,2.138087423776819
1.319263852770554,1.8402677616760355
1.320264052810562,2.0828285850150197
1.32126425285057,2.1931075107291043
1.322264452890578,2.1019836665321474
1.323264652930586,1.8667654781155616
1.324264852970594,2.1168820879527726
1.325265053010602,2.2156151293128965
1.32626525305061,2.0746875655675834
1.327265453090618,2.3071398452443455
1.328265653130626,2.0590522834280174
1.329265853170634,2.4244077484684645
1.330266053210642,2.3088093380000245
1.33126625325065,2.0694851154249707
1.332266453290658,2.1918881919014837
1.333266653330666,2.1916463661246848
1.334266853370674,1.6993736066731886
1.335267053410682,2.2254740872002863
1.33626725345069,2.0991641616669314
1.337267453490698,2.326537717398109
1.338267653530706,2.3132632938888302
1.339267853570714,1.9395083027791162
1.340268053610722,1.8493508212173655
1.34126825365073,2.236042215907778
1.342268453690738,2.2688216442001266
1.343268653730746,2.0276144210367577
1.3442688537707541,1.9646495372793056
1.3452690538107621,2.2266553037304835
1.3462692538507701,2.24244883405733
1.3472694538907781,2.3743626817655032
1.3482696539307861,2.6431245282347646
1.3492698539707941,2.414474126238043
1.3502700540108021,2.2549179393873247
1.3512702540508101,2.1394378404929757
1.3522704540908181,2.0133943487590997
1.3532706541308261,1.8494102427518189
1.3542708541708341,2.140908611294303
1.3552710542108422,2.337542308521397
1.3562712542508502,2.477532905469367
1.3572714542908582,2.2544548242699958
1.3582716543308662,2.4915114784162538
1.3592718543708742,2.63224298331715
1.3602720544108822,2.4364827723445877
1.3612722544508902,2.1672422760210424
1.3622724544908982,2.466900139089251
1.3632726545309062,2.54396628413666
1.3642728545709142,2.2229253254374024
1.3652730546109222,2.758563756588724
1.3662732546509302,2.844245691602687
1.3672734546909382,2.391949694074524
1.3682736547309462,2.3279439704409723
1.3692738547709542,2.8157081051113546
1.3702740548109622,2.4345543606690208
1.3712742548509702,2.4116307953265483
1.3722744548909782,2.7142763395248073
1.3732746549309862,2.645048126820523
1.3742748549709942,2.614594663882707
1.3752750550110022,2.625218305518494
1.3762752550510102,2.709430097549995
1.3772754550910182,2.693563658808857
1.3782756551310262,2.7262598588999922
1.3792758551710342,2.743424696847484
1.3802760552110422,2.683725622504034
1.3812762552510502,2.7161585088548628
1.3822764552910582,2.5362670705404846
1.3832766553310663,2.516971013061033
1.3842768553710743,2.6924812335134036
1.3852770554110823,2.6382051343809167
1.3862772554510903,2.7911605885182196
1.3872774554910983,2.4320336983940622
1.3882776555311063,2.2249437230735456
1.3892778555711143,2.56162577553165
1.3902780556111223,2.7103160925338567
1.3912782556511303,2.5590861494452555
1.3922784556911383,2.388404052906027
1.3932786557311463,2.4330537442362963
1.3942788557711543,2.6305320662376404
1.3952790558111623,2.643697537286235
1.3962792558511703,2.7980427888296386
1.3972794558911783,2.535029976314985
1.3982796559311863,2.859885344054308
1.3992798559711943,2.8875792832010783
1.4002800560112023,2.63706535136998
1.4012802560512103,2.400981300341339
1.4022804560912183,2.689528752069115
1.4032806561312263,2.824351596567524
1.4042808561712343,2.944865383256257
1.4052810562112423,2.2054887733124526
1.4062812562512503,2.662531609397355
1.4072814562912583,2.5213133590388392
1.4082816563312663,2.9332229133324215
1.4092818563712743,2.8981768336887734
1.4102820564112823,2.8903827526332284
1.4112822564512904,2.685997743476447
1.4122824564912984,2.991211630173986
1.4132826565313064,2.6261780206070187
1.4142828565713144,2.872792334354308
1.4152830566113224,2.851477017220498
1.4162832566513304,3.1389026524661805
1.4172834566913384,3.1124525237726797
1.4182836567313464,2.934902782604135
1.4192838567713544,2.8329563079630717
1.4202840568113624,2.9335631472750556
1.4212842568513704,2.9154725829508563
1.4222844568913784,2.937844897465329
1.4232846569313862,2.6325191111245725
1.4242848569713942,2.438914033259234
1.4252850570114022,2.817096729325943
1.4262852570514102,2.679046538570127
1.4272854570914182,2.7864097944548294
1.4282856571314262,2.569107312651882
1.4292858571714342,2.7169399744132567
1.4302860572114422,2.8891277104137045
1.4312862572514502,2.8752041599197247
1.4322864572914582,2.9320738050836623
1.4332866573314662,2.892233051604299
1.4342868573714742,2.622068143169451
1.4352870574114822,2.8088040910826364
1.4362872574514902,2.550475959773677
1.4372874574914982,3.072837170660676
1.4382876575315062,2.431967846481084
1.4392878575715142,2.5569328406218252
1.4402880576115222,2.4604440587058614
1.4412882576515302,2.8635395639157326
1.4422884576915382,3.1847896539490166
1.4432886577315462,2.5505234722356738
1.4442888577715542,2.7206759460909753
1.4452890578115622,3.1217613125285544
1.4462892578515703,2.3064477135045003
1.4472894578915783,2.63811335492067
1.4482896579315863,2.8010840441375002
1.4492898579715943,2.764397315675335
1.4502900580116023,2.668904272007843
1.4512902580516103,2.5166155083643478
1.4522904580916183,2.5829753454094346
1.4532906581316263,2.5650104427675644
1.4542908581716343,2.5892877887539543
1.4552910582116423,2.551751950287301
1.4562912582516503,2.6787277334267063
1.4572914582916583,2.7278652661997866
1.4582916583316663,2.2991712015001027
1.4592918583716743,2.5723517663982354
1.4602920584116823,2.449823287958352
1.4612922584516903,2.5393832986055447
1.4622924584916983,2.115633717773731
1.4632926585317063,2.278390666942053
1.4642928585717143,2.7328794172735207
1.4652930586117223,2.5486481282536477
1.4662932586517303,2.6923113775351797
1.4672934586917383,2.5882689874713702
1.4682936587317463,2.366320482741201
1.4692938587717543,2.7245908333348234
1.4702940588117623,2.70063223676889
1.4712942588517703,2.611654479963666
1.4722944588917783,2.769057220164374
1.4732946589317863,2.3707960850809706
1.4742948589717944,2.5089304260239067
1.4752950590118024,2.321635841965612
1.4762952590518104,2.685691832193886
1.4772954590918184,2.2993832669269834
1.4782956591318264,2.122723640237828
1.4792958591718344,2.637256849272307
1.4802960592118424,2.3433117258551075
1.4812962592518504,2.4117634601541766
1.4822964592918584,2.741543691933726
1.4832966593318664,2.5815898736443796
1.4842968593718744,2.7635507794893197
1.4852970594118824,2.2018216918023943
1.4862972594518904,2.5998296783786365
1.4872974594918984,2.7759764795788713
1.4882976595319064,2.9488924884689744
1.4892978595719144,2.5787813407924216
1.4902980596119224,2.7754439556681567
1.4912982596519304,2.695833550371599
1.4922984596919384,2.9102574095773055
1.4932986597319464,2.7924011137415157
1.4942988597719544,2.6780232986680836
1.4952990598119624,2.777305094029588
1.4962992598519704,3.006615804753707
1.4972994598919784,2.8397959088584077
1.4982996599319864,2.9147830369253875
1.4992998599719944,3.022165192360084
1.5003000600120024,3.052431830943591
1.5013002600520104,3.060261056386735
1.5023004600920185,3.1669217831379344
1.5033006601320265,3.2031873954669696
1.5043008601720345,2.995919040690691
1.5053010602120425,3.266204387715595
1.5063012602520505,3.3697713783458783
1.5073014602920585,3.003727065440809
1.5083016603320665,3.137313942658924
1.5093018603720745,3.10166553000845
1.5103020604120825,3.356031531672503
1.5113022604520905,3.1620908998843102
1.5123024604920985,3.6409907041858616
1.5133026605321065,3.3666023682090445
1.5143028605721145,2.9957272426201826
1.5153030606121225,3.455189864942954
1.5163032606521305,3.2131310654644163
1.5173034606921385,3.4060905053609196
1.5183036607321465,3.1043501221408025
1.5193038607721545,3.6147213996867347
1.5203040608121625,3.1524244221983606
1.5213042608521705,3.137881768417725
1.5223044608921785,3.483365806871292
1.5233046609321865,3.432936707461757
1.5243048609721945,3.5400406186953237
1.5253050610122025,3.0387904874550777
1.5263052610522105,3.177705550858557
1.5273054610922185,3.1758428465123574
1.5283056611322265,3.0588806582482504
1.5293058611722345,3.475628311959686
1.5303060612122426,3.4475434245790626
1.5313062612522506,3.219187416782345
1.5323064612922586,3.567760095777432
1.5333066613322666,3.4230813328299075
1.5343068613722746,3.26047931191961
1.5353070614122826,3.273408694622235
1.5363072614522904,3.479190777408963
1.5373074614922984,3.59926616682543
1.5383076615323064,3.1149641334900604
1.5393078615723144,3.4234937144501636
1.5403080616123224,2.9905903153390554
1.5413082616523304,3.067777015238923
1.5423084616923384,2.8703602791572638
1.5433086617323464,3.1117922048289572
1.5443088617723544,2.7849670559548567
1.5453090618123624,2.8510224844656062
1.5463092618523704,2.9243954350599117
1.5473094618923784,2.921003882587331
1.5483096619323864,3.1354620103850053
1.5493098619723944,2.854686731152584
1.5503100620124024,2.560809887014196
1.5513102620524104,2.699150219142166
1.5523104620924184,2.8309894847794386
1.5533106621324264,2.7700144031616896
1.5543108621724344,2.9372033233342485
1.5553110622124424,2.706681617617494
1.5563112622524504,2.9008679048610087
1.5573114622924584,2.9055778373458403
1.5583116623324664,2.4682319911617863
1.5593118623724744,2.7881711293237026
1.5603120624124824,2.7917677566517414
1.5613122624524904,2.520652788463006
1.5623124624924984,2.2713373365514875
1.5633126625325064,2.5631435280759174
1.5643128625725145,2.1283099665017624
1.5653130626125225,2.430867218875432
1.5663132626525305,2.409734474784108
1.5673134626925385,2.442691071715385
1.5683136627325465,2.260723630536058
1.5693138627725545,2.017522522629381
1.5703140628125625,2.391586867722709
1.5713142628525705,2.108893156686171
1.5723144628925785,2.6290846919404793
1.5733146629325865,1.9041953732602497
1.5743148629725945,2.1510244804562397
1.5753150630126025,1.7436541768487646
1.5763152630526105,2.0640498351600725
1.5773154630926185,2.322409158094507
1.5783156631326265,1.7805906349660183
1.5793158631726345,1.9112078768720053
1.5803160632126425,2.028226748212789
1.5813162632526505,2.121172243359235
1.5823164632926585,2.151598481411855
1.5833166633326665,2.271273857576101
1.5843168633726745,1.9862254151893495
1.5853170634126825,2.3925747790212006
1.5863172634526905,2.2276002798142227
1.5873174634926985,2.0822469452846173
1.5883176635327065,1.902213957038767
1.5893178635727145,1.727419006878871
1.5903180636127225,2.273354024971629
1.5913182636527305,1.8475005722818851
1.5923184636927386,2.0004217823680386
1.5933186637327466,1.7277595566900308
1.5943188637727546,1.7191391671574887
1.5953190638127626,2.071570511720858
1.5963192638527706,2.100332560712609
1.5973194638927786,1.409005055891863
1.5983196639327866,1.7881794980628198
1.5993198639727946,1.9262792196193637
1.6003200640128026,1.729840740193076
1.6013202640528106,1.033327606752062
1.6023204640928186,1.89386361449262
1.6033206641328266,1.5543495085973345
1.6043208641728346,1.914120714397296
1.6053210642128426,1.720895063332213
1.6063212642528506,1.8243471353842566
1.6073214642928586,1.824756471092952
1.6083216643328666,1.7172215773080153
1.6093218643728746,1.2800923618848692
1.6103220644128826,1.977090732139159
1.6113222644528906,1.9303016302855398
1.6123224644928986,1.5638870484694833
1.6133226645329066,1.9167122691100533
1.6143228645729146,1.7952213162491975
1.6153230646129226,1.9951339204266056
1.6163232646529306,1.9172585973872216
1.6173234646929386,1.6333290974554489
1.6183236647329466,2.203466959454001
1.6193238647729546,1.8958363689063074
1.6203240648129626,1.9752835208414405
1.6213242648529707,1.5201754517869437
1.6223244648929787,1.8957453641141528
1.6233246649329867,1.6806053317429466
1.6243248649729947,1.8499634324063052
1.6253250650130027,1.7389232879067442
1.6263252650530107,1.6609394423320991
1.6273254650930187,1.8749994535145678
1.6283256651330267,1.6798995273534307
1.6293258651730347,1.8883495980495626
1.6303260652130427,1.9869728979964998
1.6313262652530507,1.657464895514749
1.6323264652930587,1.8188745130109687
1.6333266653330667,1.7065188314733346
1.6343268653730747,1.8838583745032733
1.6353270654130827,1.8939973729512958
1.6363272654530907,1.8483416125183842
1.6373274654930987,1.4881573609595062
1.6383276655331067,1.7233621907749672
1.6393278655731147,1.7249256195564726
1.6403280656131227,2.0677082826212443
1.6413282656531307,2.0691964203305044
1.6423284656931387,1.9249102370118323
1.6433286657331467,1.584541133911627
1.6443288657731547,1.8942416436331437
1.6453290658131627,1.7853796103603052
1.6463292658531707,1.8988881173538916
1.6473294658931787,1.8417852962286765
1.6483296659331867,1.4442164703035123
1.6493298659731948,1.8875978252384584
1.6503300660132025,1.8886373064020372
1.6513302660532105,1.872465698912655
1.6523304660932185,1.7370656433352598
1.6533306661332265,1.861621141226472
1.6543308661732345,2.0092162727943466
1.6553310662132426,1.498398092178023
1.6563312662532506,1.6058189183346876
1.6573314662932586,1.7705048159046852
1.6583316663332666,2.1576949642256387
1.6593318663732746,1.746359689173718
1.6603320664132826,2.0183583717090325
1.6613322664532906,1.4587729833435406
1.6623324664932986,1.995362453969463
1.6633326665333066,2.103670228508726
1.6643328665733146,1.8125636584877127
1.6653330666133226,1.6607692898044246
1.6663332666533306,1.7173013957425936
1.6673334666933386,1.8209385783306826
1.6683336667333466,1.9543057998222575
1.6693338667733546,2.49129675713465
1.6703340668133626,1.8354701478685818
1.6713342668533706,1.710594583611541
1.6723344668933786,1.977829949667206
1.6733346669333866,1.7054255251765442
1.6743348669733946,1.7847590209052793
1.6753350670134026,1.5732940501420076
1.6763352670534106,1.515779229517276
1.6773354670934186,1.7911443444876918
1.6783356671334266,1.6896572738046804
1.6793358671734346,1.5600080888053873
1.6803360672134426,2.074078680532546
1.6813362672534506,1.6696322626359787
1.6823364672934586,1.6145947167913712
1.6833366673334667,1.598609149832671
1.6843368673734747,1.7353759461769132
1.6853370674134827,1.7939184276539637
1.6863372674534907,1.9325600373242449
1.6873374674934987,1.8353981260314338
1.6883376675335067,2.305989085569459
1.6893378675735147,1.5369640966045484
1.6903380676135227,1.8488152772348643
1.6913382676535307,2.221521649927229
1.6923384676935387,2.184912018786594
1.6933386677335467,1.994358299977036
1.6943388677735547,1.941431314990635
1.6953390678135627,1.9067836475487272
1.6963392678535707,1.9560383374922752
1.6973394678935787,2.007362063967429
1.6983396679335867,2.345106563815607
1.6993398679735947,2.02315685443627
1.7003400680136027,2.1189351169195803
1.7013402680536107,1.8124017013663098
1.7023404680936187,2.2365903779338794
1.7033406681336267,2.005939546439246
1.7043408681736347,2.008276216360039
1.7053410682136427,2.2486485859285015
1.7063412682536507,1.9120982479211903
1.7073414682936587,2.135840060845546
1.7083416683336667,2.0449747484717133
1.7093418683736747,1.8111685523573535
1.7103420684136827,1.6798970358960137
1.7113422684536908,2.011580200139177
1.7123424684936988,1.8142830397466871
1.7133426685337068,2.326604962305989
1.7143428685737148,2.0666503711514523
1.7153430686137228,2.0321339693613942
1.7163432686537308,1.6563682519154705
1.7173434686937388,1.9398534981585693
1.7183436687337468,2.43277223665386
1.7193438687737548,2.3081973791897052
1.7203440688137628,1.8568820762075777
1.7213442688537708,2.392976924451607
1.7223444688937788,1.941312050508452
1.7233446689337868,2.1428901999109526
1.7243448689737948,2.166830650999102
1.7253450690138028,2.211833862972488
1.7263452690538108,1.4188276700021207
1.7273454690938188,1.6019622457988567
1.7283456691338268,1.907993635611604
1.7293458691738348,2.1689380495937227
1.7303460692138428,1.96374020538876
1.7313462692538508,1.8407893612992057
1.7323464692938588,1.8867332033642823
1.7333466693338668,2.0755466617603324
1.7343468693738748,2.3606308778791134
1.7353470694138828,1.856524497600683
1.7363472694538908,1.8393014071930816
1.7373474694938988,1.7134977448707212
1.7383476695339068,1.983683301063275
1.7393478695739149,1.9068765651629476
1.7403480696139229,2.434434346172965
1.7413482696539309,2.0997724429975126
1.7423484696939389,1.8995010997016684
1.7433486697339469,1.947941243251316
1.7443488697739549,1.6964712227592107
1.7453490698139629,2.2899943316031357
1.7463492698539709,2.0371776710193834
1.7473494698939789,1.9742456072728078
1.7483496699339869,1.7953396326366284
1.7493498699739949,1.9080505082575285
1.750350070014003,2.008333895368638
1.751350270054011,2.2017885138742592
1.752350470094019,2.004581452543031
1.753350670134027,1.6758453336933141
1.754350870174035,1.909944439691301
1.755351070214043,1.9876157234492544
1.756351270254051,1.7492005838397426
1.757351470294059,1.9389122950803195
1.758351670334067,1.9589134197646767
1.759351870374075,1.783721250238917
1.760352070414083,1.7693559506813508
1.761352270454091,1.7860243071472455
1.762352470494099,2.211290262242083
1.763352670534107,1.884256571472533
1.7643528705741147,1.6206332500130634
1.7653530706141227,2.0446724820044193
1.7663532706541307,1.8555260304750958
1.7673534706941387,1.8465386975346045
1.7683536707341467,1.9667117435472963
1.7693538707741547,1.6535087926378522
1.7703540708141627,2.219001893050614
1.7713542708541707,1.643107775930738
1.7723544708941787,1.542450238463747
1.7733546709341867,2.0934128358274546
1.7743548709741948,2.114494790309345
1.7753550710142028,1.8337736398970848
1.7763552710542108,1.7236429597437481
1.7773554710942188,1.7348698421590503
1.7783556711342268,1.8790568758807416
1.7793558711742348,1.7185043886364273
1.7803560712142428,1.739352984387402
1.7813562712542508,2.001682428942073
1.7823564712942588,2.232824131977801
1.7833566713342668,2.2767989511292184
1.7843568713742748,1.672777221865632
1.7853570714142828,1.88161371296251
1.7863572714542908,1.9770625976121086
1.7873574714942988,1.8831773372714022
1.7883576715343068,1.756020539317209
1.7893578715743148,1.7794389980978689
1.7903580716143228,1.9153281012658054
1.7913582716543308,1.9010634435548004
1.7923584716943388,2.1771650136872234
1.7933586717343468,2.1210462119125344
1.7943588717743548,2.1904417114336328
1.7953590718143628,2.3929041656721326
1.7963592718543708,2.0965777684597633
1.7973594718943788,2.2081630296230936
1.7983596719343868,2.0349702893377373
1.7993598719743948,2.155916873501269
1.8003600720144028,1.9879426008510908
1.8013602720544108,1.923823119332105
1.8023604720944189,1.9932580975912815
1.8033606721344269,1.9244450887906104
1.8043608721744349,2.199122289028225
1.8053610722144429,2.3600507009921814
1.8063612722544509,2.174401313592009
1.8073614722944589,1.8860602484326727
1.8083616723344669,2.1356615901950002
1.8093618723744749,2.4633844711792188
1.8103620724144829,1.686448786682289
1.8113622724544909,2.076732139366122
1.8123624724944989,2.0662372364748682
1.813362672534507,2.102428728110727
1.814362872574515,1.8596050044774342
1.815363072614523,1.8722480435124211
1.816363272654531,1.7524880960265004
1.817363472694539,2.0277272243116657
1.818363672734547,2.0086883528295036
1.819363872774555,2.4605824782869936
1.820364072814563,1.829677872022422
1.821364272854571,2.0688263467923926
1.822364472894579,1.9518260770313807
1.823364672934587,2.38834863165023
1.824364872974595,2.2658995293882263
1.825365073014603,2.178367502544487
1.826365273054611,2.2136996872402963
1.827365473094619,1.8682028381014648
1.828365673134627,2.26688925664185
1.829365873174635,2.3346467756377867
1.830366073214643,1.72618332898652
1.831366273254651,1.8645451952078584
1.832366473294659,1.7521697981545867
1.833366673334667,1.978105046486737
1.834366873374675,2.063669964512161
1.835367073414683,2.057315628930917
1.836367273454691,1.95224502575448
1.837367473494699,1.7429896361659938
1.838367673534707,2.1537806016964534
1.839367873574715,1.9668671668505866
1.840368073614723,2.4520975539579046
1.841368273654731,1.9781118111441127
1.842368473694739,1.9590273729512657
1.843368673734747,2.1579868239389763
1.844368873774755,2.164609789808521
1.845369073814763,1.5618522615193966
1.846369273854771,1.817105311083563
1.847369473894779,1.6360521257608567
1.848369673934787,1.8547589236809743
1.849369873974795,1.6258309472928922
1.850370074014803,1.7101181094023417
1.851370274054811,1.5072882007672779
1.852370474094819,1.2996763280674817
1.853370674134827,1.840963012262439
1.854370874174835,1.841069183917368
1.855371074214843,1.5408776185961433
1.856371274254851,1.1299570223189948
1.857371474294859,1.174651346774917
1.858371674334867,1.46870786522731
1.859371874374875,1.2213197158638158
1.860372074414883,1.2191689366541607
1.861372274454891,0.9042511460931997
1.862372474494899,1.2738274412210027
1.863372674534907,1.5240340824330079
1.864372874574915,1.0057155694715783
1.865373074614923,1.0808444047476868
1.866373274654931,1.1193510328925176
1.867373474694939,1.119610432500507
1.868373674734947,1.3460832034828683
1.869373874774955,1.4799887151198399
1.870374074814963,1.1353734271774152
1.871374274854971,0.8008732615678975
1.872374474894979,0.9709754588420569
1.873374674934987,1.051426378050821
1.874374874974995,0.8491587874327521
1.8753750750150031,1.0518059900379277
1.8763752750550111,0.7989090391875271
1.8773754750950191,1.1148059196768383
1.878375675135027,1.331611550911416
1.879375875175035,1.3030103099761345
1.880376075215043,0.6807033136980339
1.881376275255051,0.4805138615993553
1.882376475295059,0.8162905627040329
1.883376675335067,0.905430633016725
1.884376875375075,1.134943604355008
1.885377075415083,1.157958883460256
1.886377275455091,0.9850255066757669
1.887377475495099,0.8769869989010844
1.888377675535107,0.8133198588981438
1.889377875575115,0.6512914466484002
1.890378075615123,0.9259837530602348
1.891378275655131,1.0612677717699455
1.892378475695139,1.0063121907873793
1.893378675735147,0.5839631526547536
1.894378875775155,0.9114788246666974
1.895379075815163,0.31382574021846543
1.896379275855171,0.6110068469789974
1.897379475895179,0.9493212550120176
1.898379675935187,0.9482871524054386
1.899379875975195,0.4920387367170597
1.900380076015203,0.8713508735374953
1.901380276055211,1.2351526687856675
1.902380476095219,1.2289388596871533
1.903380676135227,1.0304438677316803
1.904380876175235,0.9317605647603966
1.905381076215243,0.9284127868135179
1.906381276255251,1.1222230279446528
1.907381476295259,1.2321968094073126
1.908381676335267,1.269764654509128
1.909381876375275,1.2670406496091728
1.910382076415283,1.0081054791536705
1.911382276455291,1.341053330204377
1.912382476495299,1.77089766580595
1.913382676535307,1.440759851987536
1.914382876575315,1.8082570265167042
1.915383076615323,1.7364489248299608
1.916383276655331,1.391260027412934
1.917383476695339,1.5876930969848122
1.918383676735347,1.3712570420397183
1.919383876775355,2.167108949376269
1.920384076815363,2.453288274175999
1.921384276855371,1.9884299804365906
1.922384476895379,2.0098024683426416
1.923384676935387,2.0927527055967605
1.924384876975395,2.0580660366526464
1.925385077015403,2.1027805863620745
1.926385277055411,2.606171070652566
1.927385477095419,2.8317019583913114
1.928385677135427,2.8191820767327416
1.929385877175435,3.178444587666857
1.930386077215443,2.908691709488923
1.931386277255451,2.7623514834938376
1.932386477295459,2.6625975682232683
1.933386677335467,2.6796130772393525
1.934386877375475,2.954341629790859
1.935387077415483,3.2600847184385335
1.936387277455491,3.316938346293949
1.937387477495499,3.0990065477262605
1.9383876775355071,3.8521071276472947
1.9393878775755151,3.4336881204598018
1.9403880776155231,3.282384114741159
1.9413882776555311,3.6512054574920527
1.9423884776955391,3.7600715018993447
1.9433886777355471,3.6450195925136257
1.9443888777755551,3.9502007430805914
1.9453890778155631,4.1557960456941645
1.9463892778555711,4.215707580890775
1.9473894778955791,4.256674378044922
1.9483896779355871,4.324415784343887
1.9493898779755952,4.294224438895619
1.9503900780156032,4.49384516264578
1.9513902780556112,4.481218834995069
1.9523904780956192,4.805370682116591
1.9533906781356272,4.6280823284911525
1.9543908781756352,4.783159000324155
1.9553910782156432,4.78080022060045
1.9563912782556512,5.070771187694809
1.9573914782956592,4.769685423207036
1.9583916783356672,5.096853681830655
1.9593918783756752,5.51431280221058
1.9603920784156832,5.028733207907612
1.9613922784556912,5.5014758375951995
1.9623924784956992,4.93232603317799
1.9633926785357072,5.503026524212267
1.9643928785757152,5.43209949951362
1.9653930786157232,5.746414919789964
1.9663932786557312,5.745233471185689
1.9673934786957392,5.724672305205377
1.9683936787357472,5.636687421117377
1.9693938787757552,5.626869072099366
1.9703940788157632,5.768289892563822
1.9713942788557712,6.088167662286607
1.9723944788957792,5.932825070644839
1.9733946789357872,6.188163945745195
1.9743948789757952,6.183328685333001
1.9753950790158032,6.2794556253922735
1.9763952790558112,5.99121581558943
1.9773954790958193,6.192838173439537
1.9783956791358273,6.450624930745532
1.9793958791758353,6.606253565001415
1.9803960792158433,6.200198062542183
1.9813962792558513,6.196740169923259
1.9823964792958593,6.626771059255628
1.9833966793358673,6.352955909791856
1.9843968793758753,6.305791857697859
1.9853970794158833,6.593933683551457
1.9863972794558913,6.053876190902658
1.9873974794958993,6.787060007704262
1.9883976795359073,6.662366322086428
1.9893978795759153,6.306058007983876
1.9903980796159233,6.499679309292072
1.9913982796559313,6.728672755687157
1.992398479695939,6.90285000220274
1.993398679735947,6.601933190403584
1.994398879775955,6.539593327950174
1.995399079815963,6.559087232781141
1.996399279855971,7.095736684228538
1.997399479895979,6.467836646528892
1.998399679935987,6.786161490294765
1.999399879975995,6.503381078966335
2.000400080016003,6.87752215683348
2.001400280056011,6.606953530341693
2.002400480096019,6.285711487854953
2.003400680136027,6.531414951659134
2.004400880176035,6.117508428921446
2.005401080216043,6.515580836338039
2.006401280256051,6.21613463931296
2.007401480296059,6.475950289534846
2.008401680336067,6.433756070383112
2.009401880376075,6.188620206347461
2.010402080416083,6.458599185323179
2.011402280456091,6.374205599983787
2.012402480496099,6.065796060569998
2.013402680536107,6.125126950759639
2.014402880576115,5.633403015612271
2.015403080616123,6.337114342523305
2.016403280656131,6.102437966216691
2.017403480696139,6.198581666888326
2.018403680736147,5.606551493382848
2.019403880776155,5.7517155877773645
2.020404080816163,5.984770214968143
2.021404280856171,6.0248707793706195
2.022404480896179,5.7090110346239245
2.023404680936187,5.755397537992008
2.024404880976195,5.412369874509478
2.025405081016203,5.532016347395238
2.026405281056211,5.536071768946367
2.027405481096219,4.962703418490586
2.028405681136227,4.9977166705666445
2.029405881176235,5.38973422038912
2.030406081216243,5.169375117087512
2.0314062812562512,5.3162448550385655
2.0324064812962592,4.798554752399461
2.0334066813362672,5.182337266854397
2.0344068813762752,4.49900013767452
2.0354070814162832,4.5621714913478995
2.0364072814562912,4.644769611750309
2.0374074814962992,4.291034061206561
2.0384076815363072,4.45049861982132
2.0394078815763153,4.381054573572527
2.0404080816163233,4.511111080112161
2.0414082816563313,4.603926583034698
2.0424084816963393,4.237069541316756
2.0434086817363473,4.300581070684709
2.0444088817763553,4.257510529792085
2.0454090818163633,4.28123417049419
2.0464092818563713,3.8905436759811094
2.0474094818963793,4.243158144430773
2.0484096819363873,3.779150119442442
2.0494098819763953,4.158549242240605
2.0504100820164033,3.858883012577055
2.0514102820564113,3.7031501487763143
2.0524104820964193,3.9090602001535766
2.0534106821364273,3.711709155891033
2.0544108821764353,3.7422091237609063
2.0554110822164433,3.5193758653728686
2.0564112822564513,3.372051432927603
2.0574114822964593,4.019207805557827
2.0584116823364673,3.83641338074733
2.0594118823764753,3.882151759183954
2.0604120824164833,3.6469587075442145
2.0614122824564913,3.3706535390615615
2.0624124824964993,3.7200959061175825
2.0634126825365073,3.360531130569178
2.0644128825765153,3.5525141063219214
2.0654130826165233,3.93012339247709
2.0664132826565313,3.24943574835791
2.0674134826965394,3.4168616871899604
2.0684136827365474,3.446707563448764
2.0694138827765554,3.0426830412723365
2.0704140828165634,3.059914407490437
2.0714142828565714,3.2711934506802955
2.0724144828965794,2.7518205689760817
2.0734146829365874,3.201933130621615
2.0744148829765954,2.6997103571371737
2.0754150830166034,3.155016165252814
2.0764152830566114,3.3566415213839935
2.0774154830966194,2.850394025270278
2.0784156831366274,3.1077882886753265
2.0794158831766354,3.0058977247609433
2.0804160832166434,2.9205790970386865
2.0814162832566514,2.8035800343181987
2.0824164832966594,3.2186369662843193
2.0834166833366674,2.8502475524483786
2.0844168833766754,2.926548603865112
2.0854170834166834,2.727618333626999
2.0864172834566914,3.111150841607605
2.0874174834966994,2.9616263667672644
2.0884176835367074,2.666123864717511
2.0894178835767154,2.753827339545698
2.0904180836167234,3.5126215177641553
2.0914182836567314,2.7978855540397127
2.0924184836967394,2.628791673527194
2.0934186837367474,2.702163615909795
2.0944188837767554,2.9165688458300547
2.0954190838167635,2.5936747071817043
2.0964192838567715,2.6719248088752745
2.0974194838967795,2.657545210617378
2.0984196839367875,2.235389105026492
2.0994198839767955,2.828454900327686
2.1004200840168035,2.7512516738710526
2.1014202840568115,2.861919338786605
2.1024204840968195,2.7328424484067093
2.1034206841368275,2.2742269811043228
2.1044208841768355,2.335347556468562
2.1054210842168435,2.6376885279526703
2.1064212842568515,2.2414697276775097
2.1074214842968595,2.362919404812839
2.1084216843368675,2.4548892218326155
2.1094218843768755,2.462009028086026
2.1104220844168835,2.638100402226075
2.1114222844568915,2.7400934453028265
2.1124224844968995,2.5052487738768896
2.1134226845369075,2.723006062944399
2.1144228845769155,2.6744349361321755
2.1154230846169235,2.420678083466166
2.1164232846569315,2.4184414373809293
2.1174234846969395,2.528731947764151
2.1184236847369475,2.7008389559500388
2.1194238847769555,2.613913260513086
2.1204240848169635,2.428509844848678
2.1214242848569715,2.157225376273476
2.1224244848969795,2.2008766581573806
2.1234246849369875,2.517982644146216
2.1244248849769956,2.107420940597593
2.1254250850170036,2.272550570035499
2.1264252850570116,2.291553850035617
2.1274254850970196,1.9310728599241112
2.1284256851370276,1.9539724998115202
2.1294258851770356,2.175517833434817
2.1304260852170436,2.1133395392775394
2.1314262852570516,2.1707309107982216
2.1324264852970596,2.243879241473521
2.1334266853370676,2.0581801672461664
2.1344268853770756,2.1959328524401482
2.1354270854170836,2.3081330834497
2.1364272854570916,2.16724686226567
2.1374274854970996,2.7280218999852672
2.1384276855371076,2.2522724036132353
2.1394278855771156,2.3118090179881245
2.1404280856171236,2.38347986808989
2.1414282856571316,2.0798268828534807
2.1424284856971396,2.2443712220914542
2.1434286857371476,1.7628453411124037
2.1444288857771556,1.90921969882356
2.1454290858171636,1.4317215181590055
2.1464292858571716,2.1876825363760237
2.1474294858971796,2.127511270990213
2.1484296859371876,2.270705886723124
2.1494298859771956,2.1080711194988764
2.1504300860172036,2.0070949850539157
2.1514302860572116,2.0204741376020636
2.1524304860972197,2.296688320280885
2.1534306861372277,1.8971855131766946
2.1544308861772357,2.2804335882584947
2.1554310862172437,2.158534219736124
2.1564312862572517,1.9395908799136259
2.1574314862972597,2.458369430136594
2.1584316863372677,1.989507085703947
2.1594318863772757,2.344924089521105
2.1604320864172837,2.2197959074947184
2.1614322864572917,2.3528230253421345
2.1624324864972992,2.0395433222034867
2.1634326865373072,2.038000399853552
2.1644328865773153,2.210916091577165
2.1654330866173233,2.347762313490746
2.1664332866573313,1.9311955411426667
2.1674334866973393,2.2550909883733476
2.1684336867373473,2.3814199455137475
2.1694338867773553,2.136381550355775
2.1704340868173633,2.236936078661086
2.1714342868573713,2.228849343595566
2.1724344868973793,2.2684538727814094
2.1734346869373873,2.402806468439293
2.1744348869773953,2.6467921342816254
2.1754350870174033,2.152207187253486
2.1764352870574113,2.4805327531578176
2.1774354870974193,2.2908996643030317
2.1784356871374273,2.3025253052305947
2.1794358871774353,2.7126113417215003
2.1804360872174433,2.4952660580615076
2.1814362872574513,2.5723502979839328
2.1824364872974593,2.2938448647132925
2.1834366873374673,2.2222849499202315
2.1844368873774753,2.2371568280206846
2.1854370874174833,2.0826804523755302
2.1864372874574913,2.4835392302323087
2.1874374874974993,2.021125690770799
2.1884376875375073,2.0808172230213757
2.1894378875775153,2.3622764170648147
2.1904380876175233,2.194861664968625
2.1914382876575313,2.1712758714510594
2.1924384876975394,2.1981044611055145
2.1934386877375474,1.949893135900553
2.1944388877775554,2.2001678922042593
2.1954390878175634,2.389573436434928
2.1964392878575714,2.3659505121421165
2.1974394878975794,2.8636222445976856
2.1984396879375874,2.860827349302899
2.1994398879775954,2.7592662549688245
2.2004400880176034,2.5082293327149685
2.2014402880576114,2.461153606145228
2.2024404880976194,2.784729264887096
2.2034406881376274,2.459944456091959
2.2044408881776354,2.5593579635756325
2.2054410882176434,2.9590013140865237
2.2064412882576514,2.738420927114154
2.2074414882976594,2.9548776981510994
2.2084416883376674,2.5368833241966997
2.2094418883776754,2.9873316743875957
2.2104420884176834,2.742486086507035
2.2114422884576914,2.618288015373433
2.2124424884976994,2.419815712264839
2.2134426885377074,2.706298711363283
2.2144428885777154,2.3863940833586237
2.2154430886177234,2.6001807040981393
2.2164432886577314,2.5659682500129795
2.2174434886977394,2.7395140687148385
2.2184436887377474,2.9113257895253017
2.2194438887777554,2.9519305849283084
2.2204440888177635,3.0355344660314807
2.2214442888577715,3.1378882607164758
2.2224444888977795,3.060981217308983
2.2234446889377875,2.8139860385164637
2.2244448889777955,3.076447978289262
2.2254450890178035,2.7671312925935605
2.2264452890578115,2.8804156343328517
2.2274454890978195,3.0530318165800026
2.2284456891378275,2.998699322800379
2.2294458891778355,3.05221412879745
2.2304460892178435,2.7659251211006435
2.2314462892578515,2.9460718037173463
2.2324464892978595,2.716063863691413
2.2334466893378675,3.0692892424190306
2.2344468893778755,3.0302830779667267
2.2354470894178835,2.7229044621156846
2.2364472894578915,3.1075801908173863
2.2374474894978995,2.841722164849183
2.2384476895379075,3.0385537968773764
2.2394478895779155,3.005612785483082
2.2404480896179235,3.2074895344373378
2.2414482896579315,3.0202518150238338
2.2424484896979395,2.902355357094529
2.2434486897379475,3.198816623758533
2.2444488897779555,2.89293773308583
2.2454490898179635,3.1575559615732742
2.2464492898579715,3.1001605376713424
2.2474494898979795,2.86224278690489
2.2484496899379876,3.17286738166768
2.2494498899779956,2.996432440466731
2.2504500900180036,3.2226087979447002
2.2514502900580116,3.104361389445418
2.2524504900980196,3.0177242744255675
2.2534506901380276,3.125134832832309
2.2544508901780356,3.321605255717688
2.2554510902180436,3.366854330245369
2.2564512902580516,3.409625269264201
2.2574514902980596,3.083476027221699
2.2584516903380676,3.072202708426764
2.2594518903780756,2.7839763081845663
2.2604520904180836,3.436616899349588
2.2614522904580916,3.1244200355257137
2.2624524904980996,3.3212395313462424
2.2634526905381076,3.1502584534888665
2.2644528905781156,3.0897085253332772
2.2654530906181236,2.912784910159903
2.2664532906581316,3.1591818815319397
2.2674534906981396,2.987327510991997
2.2684536907381476,3.2384572022636138
2.2694538907781556,3.22563154539831
2.2704540908181636,2.9233544731093333
2.2714542908581716,3.187196186742376
2.2724544908981796,2.9228334009205796
2.2734546909381876,2.968023884315716
2.2744548909781956,3.164579728270565
2.2754550910182036,2.8555643296974353
2.2764552910582116,3.225273008460596
2.2774554910982197,2.861360558445756
2.2784556911382277,3.0660848657518334
2.2794558911782357,2.9549002274694605
2.2804560912182437,3.025461682462704
2.2814562912582517,2.56546858656849
2.2824564912982597,3.247026106744198
2.2834566913382677,3.133895942714112
2.2844568913782757,3.021500446854483
2.2854570914182837,2.767216867451234
2.2864572914582917,2.7329998532121826
2.2874574914982997,2.6970038913597487
2.2884576915383077,2.7683531683123914
2.2894578915783157,3.260268187022064
2.2904580916183237,2.6593573218623647
2.2914582916583317,3.240052645153854
2.2924584916983397,2.4458032089469413
2.2934586917383477,2.3421863228230437
2.2944588917783557,3.0337802148601387
2.2954590918183637,2.7834302295133644
2.2964592918583717,2.6891283203396665
2.2974594918983797,2.6711442601637314
2.2984596919383877,2.612667305261046
2.2994598919783957,2.2071746852429723
2.3004600920184037,2.9139068474385525
2.3014602920584117,2.7404716881248796
2.3024604920984197,2.972038038842123
2.3034606921384277,2.95946187689453
2.3044608921784357,2.588893812630011
2.3054610922184438,2.9442661307376707
2.3064612922584518,2.461556124161624
2.3074614922984598,2.8705366207846006
2.3084616923384678,2.839204545164797
2.3094618923784758,2.651808383839031
2.3104620924184838,2.4858322234254544
2.3114622924584918,2.706115820017798
2.3124624924984998,2.501652303861958
2.313462692538508,2.860802400899323
2.314462892578516,3.101767789944301
2.315463092618524,2.99243998746854
2.316463292658532,2.9818308637164908
2.31746349269854,2.5209444485244146
2.318463692738548,3.045329693136723
2.319463892778556,2.9728441586392833
2.320464092818564,2.6313436533061565
2.321464292858572,3.264044630081258
2.32246449289858,3.20416531645424
2.323464692938588,3.4159495575243324
2.324464892978596,2.8786143472036936
2.325465093018604,2.814420138168321
2.326465293058612,3.178586454545991
2.32746549309862,3.1952211514704763
2.328465693138628,2.9410696738221307
2.329465893178636,3.1706514624357838
2.330466093218644,3.5998932612885692
2.331466293258652,3.428545746028158
2.33246649329866,2.901991078232202
2.333466693338668,3.165249106085962
2.334466893378676,2.9453497809800906
2.335467093418684,3.4030413072533388
2.336467293458692,2.817826490004509
2.3374674934987,3.482527271688992
2.338467693538708,2.9828746340245322
2.339467893578716,3.2769450265048063
2.340468093618724,3.1902981849258207
2.341468293658732,3.319064869890268
2.34246849369874,2.9373980444453447
2.343468693738748,3.2703818507283957
2.344468893778756,3.1961280981802815
2.345469093818764,3.0481420845531395
2.346469293858772,3.368028929017078
2.34746949389878,3.437138390650755
2.348469693938788,3.42241418920003
2.349469893978796,3.3087520263379737
2.350470094018804,3.4474324824236326
2.351470294058812,3.206499304183103
2.35247049409882,3.340654986696568
2.353470694138828,2.990949057376992
2.354470894178836,3.1606005644512853
2.355471094218844,3.4602894638016375
2.356471294258852,3.5987816950731686
2.35747149429886,3.5725186416023864
2.358471694338868,3.383673979051219
2.359471894378876,3.146201343787024
2.360472094418884,3.257113780578435
2.361472294458892,2.9660955174276276
2.3624724944989,2.9493277811547287
2.363472694538908,3.6102466207907815
2.364472894578916,3.089313703073234
2.365473094618924,2.8765274052506156
2.366473294658932,3.166805502879919
2.36747349469894,2.8040555647813528
2.368473694738948,3.2552700986118657
2.369473894778956,3.1394920921384286
2.370474094818964,2.9495041423883266
2.371474294858972,3.243152546378877
2.37247449489898,3.390364242556228
2.373474694938988,2.7346362120226244
2.374474894978996,2.8873241052328296
2.375475095019004,3.2890342759556743
2.376475295059012,3.2424024843792405
2.37747549509902,2.7834841803673553
2.378475695139028,2.832939246729893
2.379475895179036,2.9960456408762206
2.380476095219044,3.0711832393088505
2.381476295259052,2.8004076457209632
2.38247649529906,3.1138585026060466
2.383476695339068,2.6812781138219584
2.384476895379076,3.0416414160935847
2.385477095419084,2.465267699700461
2.386477295459092,2.633088808177268
2.3874774954991,2.7965351122917577
2.388477695539108,3.2042268118659645
2.389477895579116,2.6605039371315584
2.3904780956191236,2.407283181905111
2.3914782956591316,2.3365760408553506
2.3924784956991396,2.6862752433148165
2.3934786957391476,2.4246690478231714
2.3944788957791556,2.3887219321519875
2.3954790958191636,2.0602218808689936
2.3964792958591716,2.4956356290014394
2.3974794958991796,2.0149735214399387
2.3984796959391876,1.9562705778732832
2.3994798959791956,1.7733024708649294
2.4004800960192036,1.480516308048811
2.4014802960592116,2.0104116751669427
2.4024804960992197,2.0009461347701025
2.4034806961392277,1.6748975239131558
2.4044808961792357,1.6958079705971554
2.4054810962192437,1.6519843471354285
2.4064812962592517,1.5992569392714213
2.4074814962992597,1.6665171952041333
2.4084816963392677,1.3814311749167936
2.4094818963792757,1.4241176548447048
2.4104820964192837,1.598763315152352
2.4114822964592917,1.634371140209021
2.4124824964992997,1.4789619741719684
2.4134826965393077,1.5569139360179003
2.4144828965793157,1.874535003089205
2.4154830966193237,1.262136552016294
2.4164832966593317,1.3901694247150207
2.4174834966993397,1.273656155952807
2.4184836967393477,1.4879762132013197
2.4194838967793557,1.3015266155697234
2.4204840968193637,1.3367289571927299
2.4214842968593717,1.590918527741282
2.4224844968993797,1.6577156424668726
2.4234846969393877,1.1808954778692249
2.4244848969793957,1.2548650807333823
2.4254850970194037,1.6064787370185718
2.4264852970594117,1.4819003884990196
2.4274854970994197,1.6322258144152473
2.4284856971394277,1.5723047192784874
2.4294858971794357,1.6703541918029599
2.4304860972194438,1.7392575858229935
2.4314862972594518,1.3345562061622822
2.4324864972994598,1.6872242838101759
2.4334866973394678,1.8350529467609882
2.4344868973794758,1.5621645186823274
2.4354870974194838,1.7173964683624716
2.4364872974594918,1.9779471908747028
2.4374874974994998,1.939093604146186
2.438487697539508,1.83175063888262
2.439487897579516,1.9751812697796292
2.440488097619524,1.6598129670194606
2.441488297659532,1.6787292891828858
2.44248849769954,1.7785996587442845
2.443488697739548,1.6552401581757834
2.444488897779556,1.4203464186727426
2.445489097819564,1.9403997233205545
2.446489297859572,1.9616202029322654
2.44748949789958,1.8069050341813833
2.448489697939588,1.8156609758505933
2.449489897979596,1.8979863481965273
2.450490098019604,2.187713252786562
2.451490298059612,2.064295840379164
2.45249049809962,1.952664849105493
2.453490698139628,2.197781280491891
2.454490898179636,1.9850748375394267
2.455491098219644,2.0139879138910626
2.456491298259652,2.053908132103858
2.45749149829966,2.1673028055526
2.458491698339668,1.9021816818438637
2.459491898379676,2.000880000949152
2.460492098419684,1.5538443913264925
2.461492298459692,2.1400353221413493
2.4624924984997,2.105287007134894
2.463492698539708,2.15526138037666
2.464492898579716,1.8828702759475826
2.465493098619724,2.087798921962481
2.466493298659732,2.048984576370704
2.46749349869974,2.203219647867261
2.468493698739748,1.9638650707679368
2.469493898779756,1.9514043903566045
2.470494098819764,2.1005270101806506
2.471494298859772,2.366668036320624
2.47249449889978,2.103848543470241
2.473494698939788,2.1006429429943294
2.474494898979796,2.0861975392357097
2.475495099019804,2.2201531805797172
2.476495299059812,2.061809314053724
2.47749549909982,2.327824949246811
2.478495699139828,1.8597989202565988
2.479495899179836,1.9769563034809798
2.480496099219844,1.9099832824903222
2.481496299259852,2.3185128970713467
2.48249649929986,2.3225242254524727
2.483496699339868,2.192074132640153
2.484496899379876,2.269097895210909
2.485497099419884,2.0808411371382087
2.486497299459892,2.2426280838248367
2.4874974994999,2.046654376852558
2.488497699539908,2.39791886979948
2.489497899579916,1.8044001658316398
2.490498099619924,2.1745961332482597
2.491498299659932,2.2025501756607317
2.49249849969994,2.079107525680522
2.493498699739948,2.380451496276158
2.494498899779956,2.341656677145972
2.495499099819964,1.9144550604546742
2.496499299859972,2.08379375469153
2.49749949989998,1.862403305859091
2.498499699939988,2.1290631457469535
2.499499899979996,1.9338099756215243
2.500500100020004,2.0070593005450745
2.501500300060012,1.8390541353345768
2.50250050010002,1.9701540953140317
2.503500700140028,1.7557488632596259
2.504500900180036,1.839832344310377
2.505501100220044,1.7142957495111224
2.506501300260052,1.6196111066501384
2.50750150030006,2.007768849126145
2.508501700340068,1.94329931402718
2.509501900380076,1.7692106912466865
2.510502100420084,1.7078254984875005
2.511502300460092,2.3181195892921935
2.5125025005001,2.2513775613587916
2.513502700540108,2.256988991228528
2.514502900580116,1.8318039172802898
2.515503100620124,2.1652520297309428
2.516503300660132,1.7422006246619621
2.51750350070014,2.1365667610757373
2.518503700740148,1.8039207434855122
2.519503900780156,2.1816064296730233
2.520504100820164,2.1240456777226457
2.521504300860172,2.2173738555919207
2.52250450090018,1.7312758910445343
2.523504700940188,2.2620278879936078
2.524504900980196,2.181685263855579
2.525505101020204,1.8893570144658833
2.526505301060212,2.317357769010954
2.52750550110022,2.2841897607917425
2.528505701140228,2.0743620431431933
2.529505901180236,2.1304123637027748
2.530506101220244,2.6000092689834693
2.531506301260252,2.1904886175614773
2.53250650130026,1.9577577400012347
2.533506701340268,2.3395267920787757
2.534506901380276,2.3169245196970287
2.535507101420284,1.8750206190915821
2.536507301460292,2.216885499715513
2.5375075015003,2.0974814657185394
2.538507701540308,1.9664882269139154
2.539507901580316,2.4924082736941022
2.540508101620324,2.4940211233588836
2.541508301660332,2.660744076352755
2.54250850170034,2.312026708024882
2.543508701740348,2.2955271412956795
2.544508901780356,2.1905368929292055
2.545509101820364,1.7711708296732165
2.546509301860372,2.3409524527845704
2.54750950190038,2.9417406012431155
2.548509701940388,2.479255154360838
2.549509901980396,2.492281206022231
2.550510102020404,2.409456146687024
2.551510302060412,2.4621727930425847
2.55251050210042,2.32648400231114
2.553510702140428,2.133807739774025
2.554510902180436,2.2676026996212406
2.555511102220444,2.48577255165341
2.556511302260452,2.19758087757674
2.55751150230046,2.520947734859514
2.558511702340468,2.082544131088032
2.559511902380476,2.4311304576828605
2.560512102420484,3.0293622081825147
2.561512302460492,2.467293805398943
2.5625125025005002,2.4430906031670307
2.5635127025405082,2.523528538073526
2.5645129025805162,2.444388119158073
2.5655131026205242,2.701603183874651
2.5665133026605322,2.7151259412278903
2.5675135027005402,2.177719322496964
2.5685137027405482,2.434298739469059
2.5695139027805562,2.6642419251888563
2.5705141028205643,2.7210865848680195
2.5715143028605723,2.4505042954177867
2.5725145029005803,2.3862607330668952
2.5735147029405883,2.54378638185113
2.5745149029805963,2.2087374690181143
2.5755151030206043,2.3674593832425788
2.5765153030606123,2.2457865006681854
2.5775155031006203,2.33738105133527
2.5785157031406283,2.126300828724935
2.5795159031806363,2.775350061264273
2.5805161032206443,2.345826829681488
2.5815163032606523,2.1411967642566165
2.5825165033006603,2.113064572003295
2.5835167033406683,2.5543070279641347
2.5845169033806763,1.8994770752920487
2.5855171034206843,2.5321755911521255
2.5865173034606923,2.6612523426247146
2.5875175035007003,2.5417787339352595
2.5885177035407083,2.3214088397540005
2.5895179035807163,2.1922026867524855
2.5905181036207243,2.395544245333256
2.5915183036607323,2.058672902795113
2.5925185037007403,2.818644081267202
2.5935187037407483,2.170065132843569
2.5945189037807563,2.019664189344056
2.5955191038207643,2.2127454867541925
2.5965193038607723,2.2046425875851314
2.5975195039007803,2.2209503142672835
2.5985197039407884,2.356470166035132
2.5995199039807964,1.97262598246729
2.6005201040208044,1.977893244931844
2.6015203040608124,2.215858002807308
2.6025205041008204,2.1909910397110743
2.6035207041408284,1.8824167708198185
2.6045209041808364,2.048773521399046
2.6055211042208444,1.847857290061338
2.6065213042608524,2.061827522030108
2.6075215043008604,1.9780494243873066
2.6085217043408684,1.8862267838516866
2.6095219043808764,2.186864664044009
2.6105221044208844,1.9894009584916421
2.6115223044608924,1.9578873846440903
2.6125225045009004,1.6185882987408986
2.6135227045409084,2.0436460199741875
2.6145229045809164,2.1680404108346862
2.6155231046209244,2.0878719583123972
2.6165233046609324,1.8180947500166202
2.61752350470094,1.8783628317443455
2.618523704740948,2.1210070849863354
2.619523904780956,1.9691030575666055
2.620524104820964,1.9438711778885098
2.621524304860972,1.447203210459745
2.62252450490098,1.8256326631944972
2.623524704940988,1.8928874027387312
2.624524904980996,2.0330475241067427
2.625525105021004,2.103648998508814
2.626525305061012,1.7910829016361367
2.62752550510102,1.3118801920917138
2.628525705141028,1.963030833602991
2.629525905181036,1.787793531439461
2.630526105221044,1.737360120688556
2.631526305261052,1.6825767897185224
2.63252650530106,1.5003466339519944
2.633526705341068,1.7496248701684842
2.634526905381076,1.9596789288175314
2.635527105421084,1.5391139167545114
2.636527305461092,1.9025905345538492
2.6375275055011,1.445074516253235
2.638527705541108,1.846245603479304
2.639527905581116,1.8894837508838356
2.640528105621124,1.716621047342655
2.641528305661132,1.5568291783305177
2.64252850570114,1.5034937196616949
2.643528705741148,1.5727357060247154
2.644528905781156,1.6542790152085982
2.645529105821164,1.707143078665259
2.646529305861172,1.5791525435708507
2.64752950590118,1.3018074815429679
2.648529705941188,1.554633872115252
2.649529905981196,1.5244383170702616
2.650530106021204,1.1825539681405768
2.651530306061212,1.549631183855881
2.65253050610122,1.5963254098679305
2.653530706141228,1.1821033028006438
2.654530906181236,1.4814357244675624
2.655531106221244,1.3639234395724564
2.656531306261252,1.6227013908989047
2.65753150630126,1.500952425054932
2.658531706341268,1.3930253747448065
2.659531906381276,1.642474845464703
2.660532106421284,1.5457971953646277
2.661532306461292,1.3127651944287964
2.6625325065013,1.8581181744136401
2.663532706541308,1.6445996000399754
2.664532906581316,1.2675181187563542
2.665533106621324,1.6029514888550793
2.666533306661332,1.591507066286594
2.66753350670134,1.4483663729036023
2.668533706741348,1.0329834033968588
2.669533906781356,1.528064973538748
2.670534106821364,1.2757789147871479
2.671534306861372,1.277519323600811
2.67253450690138,1.4082392578247251
2.673534706941388,1.3706835928238186
2.674534906981396,1.578574616168378
2.675535107021404,1.815825738253638
2.676535307061412,1.4721268408890864
2.67753550710142,1.413463198729787
2.678535707141428,1.2719537469838293
2.679535907181436,1.2819297247551942
2.680536107221444,1.440609601770985
2.681536307261452,1.6400333460620702
2.68253650730146,1.9553991904904264
2.683536707341468,1.4216165907569525
2.684536907381476,1.6550996631029717
2.685537107421484,1.7275002444323033
2.686537307461492,1.376038058527171
2.6875375075015002,1.3485259794060687
2.6885377075415082,1.564969517856596
2.6895379075815162,1.473399898545774
2.6905381076215242,1.9410561560748831
2.6915383076615322,1.458708257713844
2.6925385077015402,1.409543432863092
2.6935387077415482,1.726656189505382
2.6945389077815562,1.3620331280653453
2.6955391078215643,1.9152227800843806
2.6965393078615723,1.2659514055536778
2.6975395079015803,1.285013070668326
2.6985397079415883,1.750137274868209
2.6995399079815963,1.5782814715583444
2.7005401080216043,1.8796096329746814
2.7015403080616123,1.3535581749969126
2.7025405081016203,1.5657641427086435
2.7035407081416283,1.597646778834955
2.7045409081816363,1.9834292903624329
2.7055411082216443,1.6934412222874058
2.7065413082616523,1.7593554515137666
2.7075415083016603,1.5156038536125276
2.7085417083416683,1.5064401782912133
2.7095419083816763,1.8188395787161293
2.7105421084216843,1.1612873025630996
2.7115423084616923,1.9977256817936544
2.7125425085017003,1.683279648920683
2.7135427085417083,1.631051234152699
2.7145429085817163,1.5988291207826852
2.7155431086217243,1.4708747335762453
2.7165433086617323,1.3918260889680767
2.7175435087017403,2.0290922778067277
2.7185437087417483,1.7458803033343036
2.7195439087817563,1.4487397729005653
2.7205441088217643,1.7481637330975301
2.7215443088617723,1.6241921030857196
2.7225445089017803,1.6183198588300736
2.7235447089417884,1.8132306202405502
2.7245449089817964,1.7241176440956476
2.7255451090218044,1.584091754732138
2.7265453090618124,1.8965862276114438
2.7275455091018204,1.7369288906782536
2.7285457091418284,1.7990118624027749
2.7295459091818364,1.9804571757166514
2.7305461092218444,1.9367488393241241
2.7315463092618524,2.213488674105368
2.7325465093018604,1.9457099225800931
2.7335467093418684,2.5167976222574713
2.7345469093818764,2.3844141089479627
2.7355471094218844,2.358565286512955
2.7365473094618924,2.269848877662084
2.7375475095019004,2.787386693458461
2.7385477095419084,2.5871243703174405
2.7395479095819164,2.7401992605246326
2.7405481096219244,2.496781445098657
2.7415483096619324,3.201400516397097
2.7425485097019404,2.956827480141008
2.7435487097419484,2.6730458099095733
2.7445489097819564,3.2482094589568264
2.7455491098219644,2.9733250245512215
2.7465493098619724,2.9285256138694327
2.7475495099019804,3.5281544928683517
2.7485497099419884,3.362060502647187
2.7495499099819964,3.448095754611395
2.7505501100220044,3.442409844638191
2.7515503100620124,3.7392418258807942
2.7525505101020205,3.5747179076644375
2.7535507101420285,3.9606370132515436
2.7545509101820365,3.9477644725229117
2.7555511102220445,4.29924802252527
2.7565513102620525,4.284049206415159
2.7575515103020605,4.755281082899957
2.7585517103420685,4.528774708230838
2.7595519103820765,5.093068737747795
2.7605521104220845,5.208812785153406
2.7615523104620925,4.784547235762449
2.7625525105021005,4.909681328218348
2.7635527105421085,4.830089562647726
2.7645529105821165,5.031791788104842
2.7655531106221245,4.899894580723826
2.7665533106621325,4.936505180874344
2.7675535107021405,5.007466883695958
2.7685537107421485,5.145106888230329
2.7695539107821565,5.461789111112201
2.7705541108221645,5.702705320392983
2.7715543108621725,5.510053289677615
2.7725545109021805,5.845299891883772
2.7735547109421885,6.0059870296067155
2.7745549109821965,5.989090659932764
2.7755551110222045,5.938752070266535
2.7765553110622125,5.910981536418979
2.7775555111022205,6.1211223499753
2.7785557111422285,5.568386967477843
2.7795559111822365,5.878615612613389
2.7805561112222446,6.341288058789193
2.7815563112622526,6.310856717917502
2.7825565113022606,6.290820177671481
2.7835567113422686,6.173911395938448
2.7845569113822766,6.621634201251309
2.7855571114222846,6.552283270847864
2.7865573114622926,6.378779527928116
2.7875575115023006,6.296127396641242
2.7885577115423086,6.766141022580566
2.7895579115823166,6.544343652796317
2.7905581116223246,6.50752819538612
2.7915583116623326,6.675325912457209
2.7925585117023406,6.843367967841964
2.7935587117423486,6.862633699855064
2.7945589117823566,6.606011613852496
2.7955591118223646,6.76555262635708
2.7965593118623726,6.607239875612426
2.7975595119023806,6.7927031840909855
2.7985597119423886,6.896437748575852
2.7995599119823966,6.875562114673389
2.8005601120224046,7.19043666445441
2.8015603120624126,7.062147323208538
2.8025605121024206,6.652644244561265
2.8035607121424286,6.813724607716997
2.8045609121824366,6.68274383744378
2.8055611122224446,6.9406306460384
2.8065613122624526,6.734870874818074
2.8075615123024606,6.804052917740646
2.8085617123424687,6.796988768469763
2.8095619123824767,6.626370793608852
2.8105621124224847,6.714341155070922
2.8115623124624927,6.81374207665344
2.8125625125025007,6.616296372907171
2.8135627125425087,6.873517810296194
2.8145629125825167,6.737259627023132
2.8155631126225247,6.562981445381907
2.8165633126625327,6.511925816874412
2.8175635127025407,6.615512355621628
2.8185637127425487,6.359923321898477
2.8195639127825567,6.430138290645155
2.8205641128225647,6.059304224345072
2.8215643128625727,6.657173377669974
2.8225645129025807,5.9242486641856456
2.8235647129425887,6.336152933039368
2.8245649129825967,5.963143881328532
2.8255651130226047,6.155857994334704
2.8265653130626127,6.3239486378442695
2.8275655131026207,6.2716986345551815
2.8285657131426287,6.069335607338806
2.8295659131826367,5.674509315945492
2.8305661132226447,5.910225526299949
2.8315663132626527,5.6922709469157065
2.8325665133026607,5.588628599345
2.8335667133426687,5.635648960412694
2.8345669133826767,5.6945324537383515
2.8355671134226847,5.468044276001631
2.8365673134626928,5.7373293143844135
2.8375675135027008,5.148206667366279
2.8385677135427088,5.583470128491749
2.8395679135827168,5.484503820170206
2.8405681136227248,5.3819561427158185
2.8415683136627328,4.891756823555171
2.8425685137027408,5.101924670562411
2.8435687137427488,5.093176765657627
2.844568913782757,5.25275370043951
2.8455691138227643,5.031555191004067
2.8465693138627723,4.849610499476192
2.8475695139027803,4.823744878784141
2.8485697139427884,4.681529517410441
2.8495699139827964,4.625029697839642
2.8505701140228044,4.597699893706085
2.8515703140628124,4.149004222716792
2.8525705141028204,4.483717152940467
2.8535707141428284,4.3128376674082824
2.8545709141828364,4.1635249300607455
2.8555711142228444,4.655091226938681
2.8565713142628524,4.205694020269109
2.8575715143028604,3.9582646453651233
2.8585717143428684,3.809626786022322
2.8595719143828764,4.182383644383345
2.8605721144228844,3.736211091264711
2.8615723144628924,3.840417312536069
2.8625725145029004,3.516119646219951
2.8635727145429084,3.494868381148687
2.8645729145829164,3.6396546112658372
2.8655731146229244,3.3869180497811673
2.8665733146629324,3.358820555895064
2.8675735147029404,3.055580272151669
2.8685737147429484,3.1597353228685114
2.8695739147829564,3.3546998312720664
2.8705741148229644,3.4333489440214318
2.8715743148629724,3.0061566923790655
2.8725745149029804,3.2414633104426276
2.8735747149429884,2.948417405749035
2.8745749149829964,2.9342028113993304
2.8755751150230044,3.267386745465213
2.8765753150630125,2.889900656300169
2.8775755151030205,2.775839768682548
2.8785757151430285,2.8821140990483336
2.8795759151830365,3.423949550654102
2.8805761152230445,2.6814032476946874
2.8815763152630525,3.038297263449248
2.8825765153030605,2.628814336108553
2.8835767153430685,2.633635929095429
2.8845769153830765,2.6995874479786592
2.8855771154230845,2.7084667777033107
2.8865773154630925,2.7332117563352902
2.8875775155031005,2.731306806022632
2.8885777155431085,2.6109855316756247
2.8895779155831165,2.9745253092993265
2.8905781156231245,2.675263888037878
2.8915783156631325,2.3947646260336444
2.8925785157031405,2.305623386514883
2.8935787157431485,2.801444426060276
2.8945789157831565,2.521883433563474
2.8955791158231645,2.3761624034801865
2.8965793158631725,2.4193685979946102
2.8975795159031805,2.520090292002514
2.8985797159431885,2.2933262541374084
2.8995799159831965,2.571886743243164
2.9005801160232045,1.9243251268794805
2.9015803160632125,2.298799412378585
2.9025805161032205,2.3930984250145144
2.9035807161432285,2.3158796356408167
2.9045809161832365,2.19544491344202
2.9055811162232446,2.140139774729509
2.9065813162632526,2.4358991720274195
2.9075815163032606,2.545902419721197
2.9085817163432686,2.306993058552412
2.9095819163832766,2.1890045890963905
2.9105821164232846,2.2183051197633765
2.9115823164632926,1.8628550356314282
2.9125825165033006,2.408501900563858
2.9135827165433086,2.2515690072444317
2.9145829165833166,2.6319477930225665
2.9155831166233246,2.2244645896723507
2.9165833166633326,2.3829796780103574
2.9175835167033406,2.345599869983504
2.9185837167433486,2.201878928672149
2.9195839167833566,2.6265084940976706
2.9205841168233646,2.216836023711035
2.9215843168633726,2.206175655124001
2.9225845169033806,2.0110681015260155
2.9235847169433886,2.5133692183394145
2.9245849169833966,2.3496300946133184
2.9255851170234046,1.9620655689915145
2.9265853170634126,2.182807820394953
2.9275855171034206,2.094957572329944
2.9285857171434286,2.5936742075509818
2.9295859171834366,2.08682612689062
2.9305861172234446,2.362511253759479
2.9315863172634526,1.9445301361758138
2.9325865173034606,2.4154036400314625
2.9335867173434687,1.8690783965924087
2.9345869173834767,1.8729628456355099
2.9355871174234847,2.0072073205834235
2.9365873174634927,2.342729043341444
2.9375875175035007,1.8757887496751071
2.9385877175435087,2.5255028917217577
2.9395879175835167,1.9506667849084485
2.9405881176235247,2.4840584883423062
2.9415883176635327,2.0059552297833814
2.9425885177035407,1.8456274788007592
2.9435887177435487,2.2057873747857157
2.9445889177835567,2.351608753631876
2.9455891178235647,2.0416250186374447
2.9465893178635727,2.119022616680872
2.9475895179035807,2.2851399065696776
2.9485897179435887,2.23166164048267
2.9495899179835967,2.1691208552749908
2.9505901180236047,2.5686498647932146
2.9515903180636127,2.2966450666408993
2.9525905181036207,2.273863542864094
2.9535907181436287,2.216847214315543
2.9545909181836367,1.9024944369343926
2.9555911182236447,2.2324411120885532
2.9565913182636527,1.6932397272439168
2.9575915183036607,1.793344518814021
2.9585917183436687,2.1103810694800162
2.9595919183836767,1.5707028827791527
2.9605921184236847,1.7689848067730933
2.9615923184636928,1.8212907524462447
2.9625925185037008,2.1183193513546854
2.9635927185437088,1.7840618130462582
2.9645929185837168,2.369143244999347
2.9655931186237248,1.7544610703128805
2.9665933186637328,1.9764749201007468
2.9675935187037408,2.456209796277646
2.9685937187437488,1.9321293149186676
2.969593918783757,2.3291796355528605
2.970594118823765,1.9546361193459199
2.971594318863773,2.274239363377041
2.972594518903781,1.9187611359237569
2.973594718943789,2.1868844258723508
2.974594918983797,2.4419289193727947
2.975595119023805,2.218826504042967
2.976595319063813,2.271147590026722
2.977595519103821,2.3407419585219937
2.978595719143829,2.427963674816846
2.979595919183837,2.2011749224235073
2.980596119223845,2.2004992853102197
2.981596319263853,2.4721689677153047
2.982596519303861,2.4968091816493923
2.983596719343869,2.459564606959353
2.984596919383877,2.1670102651612564
2.985597119423885,2.3321833945233648
2.986597319463893,2.251658206953862
2.987597519503901,2.520606239580833
2.988597719543909,2.424831913768788
2.989597919583917,2.6771552281956725
2.990598119623925,2.102934549625008
2.991598319663933,2.672977657523542
2.992598519703941,2.116158589845419
2.993598719743949,2.2663221376606515
2.994598919783957,2.3211549438618797
2.995599119823965,2.2212979946418683
2.996599319863973,2.5084127273918653
2.997599519903981,2.5625368533023694
2.998599719943989,2.444509894177367
2.999599919983997,2.478601653713448
3.000600120024005,2.357928300476039
3.001600320064013,2.7258919107738673
3.002600520104021,2.665070806062136
3.003600720144029,2.655674463163413
3.004600920184037,2.803406737923009
3.005601120224045,2.612743612537185
3.006601320264053,2.9823002673833408
3.007601520304061,2.56268607115047
3.008601720344069,2.7080757330367806
3.009601920384077,2.5722661894514185
3.010602120424085,3.056955966471353
3.011602320464093,2.81437731276778
3.012602520504101,2.7589343725634268
3.013602720544109,2.5511278882646793
3.014602920584117,2.553107370644959
3.015603120624125,2.9321578855766948
3.016603320664133,2.7143657246448747
3.017603520704141,2.585844078908595
3.018603720744149,3.0893862588969334
3.019603920784157,2.622193256376476
3.020604120824165,2.737570290045305
3.021604320864173,2.9752299123358963
3.022604520904181,2.970906835610867
3.023604720944189,2.8521392835749606
3.024604920984197,2.8148901091928686
3.025605121024205,2.7287749217614774
3.026605321064213,2.786079227610863
3.027605521104221,2.8530527154496275
3.028605721144229,2.999583001475938
3.029605921184237,2.9703743669500096
3.030606121224245,2.9536453911462783
3.031606321264253,3.068168897143083
3.032606521304261,3.093873610094486
3.033606721344269,3.0825376983449524
3.034606921384277,3.0388012025130258
3.035607121424285,2.85768134018212
3.036607321464293,2.9445993678776303
3.037607521504301,3.210127341694986
3.038607721544309,3.3334537892762817
3.039607921584317,3.259554224102195
3.040608121624325,3.249266841326461
3.041608321664333,2.862385776886043
3.042608521704341,3.11466781149825
3.043608721744349,3.6516604344013723
3.044608921784357,3.048122801042312
3.045609121824365,3.343676934793311
3.046609321864373,2.8070026832268375
3.047609521904381,3.165156344204408
3.048609721944389,3.106950095208702
3.049609921984397,3.207612099077887
3.050610122024405,3.072637393023716
3.051610322064413,2.856636245511125
3.052610522104421,3.8779284211876397
3.053610722144429,2.9405649474222555
3.054610922184437,3.340661332756158
3.055611122224445,3.0213718248595822
3.056611322264453,3.2773762682518544
3.057611522304461,2.3979012285823234
3.058611722344469,3.5363865889488864
3.059611922384477,3.0615829531356678
3.060612122424485,2.7029419677533553
3.061612322464493,3.3769049483262092
3.062612522504501,2.931181594063032
3.063612722544509,2.9857151788119856
3.064612922584517,3.330794301489596
3.065613122624525,2.915544027222467
3.066613322664533,3.5359467035767604
3.067613522704541,3.4403128140558885
3.068613722744549,3.103879466004399
3.069613922784557,2.9942917985169166
3.070614122824565,3.0792530337919093
3.071614322864573,2.8639100083683795
3.0726145229045807,2.8197977466616857
3.0736147229445887,2.8641343744763326
3.0746149229845967,2.8308786145556937
3.0756151230246047,2.9684845302710112
3.0766153230646127,2.7133325779536075
3.0776155231046207,2.7859779818504498
3.0786157231446287,2.949639655757438
3.0796159231846367,3.0113087590306336
3.0806161232246447,2.4355671709953133
3.0816163232646527,2.3872201525958676
3.0826165233046607,2.811339226401977
3.0836167233446687,3.2273325854477184
3.0846169233846767,2.9092655046716516
3.0856171234246847,2.8552104801248803
3.0866173234646928,2.843943272142688
3.0876175235047008,2.967539829757759
3.0886177235447088,2.61817367068289
3.0896179235847168,2.423259174866741
3.0906181236247248,2.318266640553653
3.0916183236647328,2.3417953111128402
3.0926185237047408,2.8434424023151514
3.0936187237447488,2.7689862221269865
3.094618923784757,2.6543273984278004
3.095619123824765,2.4630404194836766
3.096619323864773,2.2566783370332013
3.097619523904781,2.7578485687270127
3.098619723944789,2.730919951454087
3.099619923984797,2.692519115113579
3.100620124024805,2.315406640972444
3.101620324064813,2.5942605147706974
3.102620524104821,2.579869710463623
3.103620724144829,2.406454559794278
3.104620924184837,2.6458209659705094
3.105621124224845,2.769987833752347
3.106621324264853,2.9133941246637294
3.107621524304861,2.478600036597455
3.108621724344869,2.5203302717150255
3.109621924384877,2.928085050210049
3.110622124424885,2.9808808453648883
3.111622324464893,2.415761137705962
3.112622524504901,2.486573938521156
3.113622724544909,2.8617008352103483
3.114622924584917,2.2419494436348644
3.115623124624925,2.6329560988858254
3.116623324664933,2.79718028625529
3.117623524704941,2.6755421577882275
3.118623724744949,2.8831256129275786
3.119623924784957,3.130711633562209
3.120624124824965,2.572414171634809
3.121624324864973,3.1281828043847715
3.122624524904981,3.0665792458988252
3.123624724944989,2.7697174227809356
3.124624924984997,3.158474626426014
3.125625125025005,3.154832588291598
3.126625325065013,3.00920603965492
3.127625525105021,3.114042129579822
3.128625725145029,2.9519897562470208
3.129625925185037,2.938251631773083
3.130626125225045,2.973505535594688
3.131626325265053,3.241861829531119
3.132626525305061,3.3072785089842114
3.133626725345069,3.475178894083399
3.134626925385077,3.446415556808419
3.135627125425085,3.159227703152187
3.136627325465093,2.7488516925123756
3.137627525505101,3.151646043475584
3.138627725545109,3.58143489442177
3.139627925585117,2.9394959813575197
3.140628125625125,3.153307763365523
3.141628325665133,3.049007907213234
3.142628525705141,3.302872368701571
3.143628725745149,3.6652336945409263
3.144628925785157,3.00892885817524
3.145629125825165,3.4674793267244945
3.146629325865173,2.989693314901903
3.147629525905181,3.180939380790088
3.148629725945189,3.2706380905387205
3.149629925985197,3.2276818795627045
3.150630126025205,3.2768893523402918
3.151630326065213,3.32059641601761
3.152630526105221,3.046201623375867
3.153630726145229,3.3719185240051934
3.154630926185237,2.9728459870873
3.155631126225245,2.7644655414592996
3.156631326265253,3.2520211726452115
3.157631526305261,3.155704861874644
3.158631726345269,2.8197315022978784
3.159631926385277,2.695080894790256
3.160632126425285,3.0436957855892026
3.161632326465293,2.600690198644741
3.162632526505301,2.7188836738497044
3.163632726545309,2.737937985900606
3.164632926585317,2.976326711340899
3.165633126625325,2.396889886333504
3.166633326665333,2.784130111706337
3.167633526705341,3.014133442070693
3.168633726745349,3.0053832626742887
3.169633926785357,2.447422490783241
3.170634126825365,2.774499468390577
3.171634326865373,2.734836496153303
3.172634526905381,1.9923432156513825
3.173634726945389,2.3190401278657022
3.174634926985397,2.982985647846457
3.175635127025405,2.480908892549889
3.176635327065413,2.681127060821134
3.177635527105421,2.441519740189353
3.178635727145429,2.4041085690083737
3.179635927185437,2.3133950317532768
3.180636127225445,2.7652078807199985
3.181636327265453,2.1112102843094354
3.182636527305461,2.683628152551951
3.183636727345469,2.4904708432181195
3.184636927385477,2.0528639784587845
3.185637127425485,2.254248754547633
3.186637327465493,2.3773984442450375
3.187637527505501,2.487335131882097
3.188637727545509,2.8390995737858145
3.189637927585517,2.4356439811842057
3.190638127625525,2.5043758444875084
3.191638327665533,2.4678890105602895
3.192638527705541,2.083347905733689
3.193638727745549,2.1001706617021862
3.194638927785557,1.866771393063459
3.195639127825565,1.798489756478665
3.196639327865573,2.0353035005148707
3.197639527905581,2.0655843010456305
3.198639727945589,1.8473871898036078
3.199639927985597,1.8008418502138086
3.200640128025605,1.6030848258956398
3.201640328065613,2.0639955250632784
3.202640528105621,1.969448620868443
3.203640728145629,1.9294749102315694
3.204640928185637,2.0665414395897725
3.205641128225645,2.035554834332217
3.206641328265653,1.9536938927697627
3.207641528305661,2.150346026370376
3.208641728345669,2.548221604714497
3.209641928385677,1.8473016820557575
3.210642128425685,1.9177402903695917
3.211642328465693,2.027017600972516
3.212642528505701,1.2966771711117597
3.213642728545709,2.180673120481992
3.214642928585717,1.8176877083160357
3.215643128625725,1.938883053418971
